Time (ns),trace,xx,yy,zz,yx,zx,zy
0.0,0.0,0.0,0.0,0.0,0.0,0.0,0.0
0.1,2.08769,0.70805,0.705071,0.674568,-0.00204224,0.0017333,-0.000268927
0.2,4.09684,1.40771,1.37638,1.31275,0.00255194,0.00273136,-0.00731133
0.3,6.07812,2.10682,2.04412,1.92718,0.0154356,0.0108238,-0.017598
0.4,8.03766,2.80203,2.71082,2.52481,0.0254328,0.0290062,-0.0215316
0.5,9.98046,3.49047,3.3836,3.10639,0.0323476,0.0425458,-0.0369062
0.6,11.9069,4.18473,4.05717,3.665,0.0313466,0.0594141,-0.0438488
0.7,13.8119,4.88159,4.71932,4.21099,0.0265243,0.0798489,-0.0384258
0.8,15.7109,5.60176,5.37641,4.73276,0.0226923,0.102153,-0.0274915
0.9,17.5738,6.32001,6.01435,5.23948,0.0236849,0.125966,-0.00603144
1.0,19.4406,7.04268,6.65081,5.74715,0.0309968,0.154968,0.0147094
1.1,21.2754,7.75673,7.28707,6.23156,0.0414217,0.190943,0.045322
1.2,23.1002,8.47943,7.92523,6.6955,0.0483383,0.237133,0.0781563
1.3,24.908,9.198,8.56361,7.14635,0.0521567,0.274773,0.109663
1.4,26.707,9.91348,9.19209,7.60145,0.052467,0.308964,0.139862
1.5,28.4781,10.629,9.80887,8.0403,0.056187,0.343142,0.165772
1.6,30.2397,11.3447,10.4297,8.46531,0.0643162,0.375312,0.196091
1.7,31.9821,12.0506,11.0431,8.88832,0.0725352,0.401151,0.227617
1.8,33.7167,12.7442,11.6605,9.31202,0.0660093,0.424491,0.25836
1.9,35.4808,13.4428,12.2893,9.7487,0.061206,0.443997,0.303717
2.0,37.2358,14.1282,12.9276,10.18,0.0585938,0.447388,0.340987
2.1,38.9899,14.8163,13.5663,10.6072,0.0728764,0.452459,0.385283
2.2,40.7341,15.4768,14.2142,11.0431,0.0938317,0.455218,0.435074
2.3,42.482,16.1235,14.8675,11.4911,0.120162,0.445471,0.4739
2.4,44.2182,16.7733,15.5086,11.9363,0.14366,0.459097,0.513768
2.5,45.9568,17.4373,16.1549,12.3646,0.178861,0.477266,0.552643
2.6,47.6644,18.0913,16.8017,12.7714,0.217289,0.495697,0.582419
2.7,49.3848,18.7513,17.447,13.1866,0.254896,0.523713,0.618338
2.8,51.0842,19.4176,18.092,13.5747,0.286178,0.556376,0.645139
2.9,52.7593,20.0976,18.7095,13.9522,0.324899,0.587254,0.678169
3.0,54.4073,20.7841,19.3203,14.3029,0.367847,0.609141,0.704185
3.1,56.0282,21.4618,19.9207,14.6456,0.403605,0.620831,0.742629
3.2,57.6767,22.1458,20.5425,14.9884,0.448606,0.635035,0.766051
3.3,59.3148,22.8232,21.1627,15.3289,0.489404,0.660215,0.798526
3.4,60.971,23.5134,21.8031,15.6546,0.527331,0.686938,0.846287
3.5,62.6219,24.199,22.4489,15.9741,0.575195,0.708452,0.879999
3.6,64.2725,24.8748,23.0981,16.2995,0.615229,0.72305,0.915191
3.7,65.9755,25.6148,23.7596,16.6011,0.66913,0.729566,0.975246
3.8,67.6787,26.355,24.4192,16.9044,0.724383,0.731308,1.04786
3.9,69.3601,27.1131,25.0538,17.1933,0.762289,0.758973,1.12248
4.0,71.0469,27.8856,25.6685,17.4928,0.794685,0.80328,1.2101
4.1,72.7136,28.6607,26.2804,17.7725,0.833713,0.841486,1.2986
4.2,74.3157,29.4245,26.857,18.0342,0.856616,0.871999,1.37933
4.3,75.8926,30.191,27.4305,18.271,0.878037,0.90837,1.46168
4.4,77.4669,30.9403,28.0226,18.504,0.918166,0.942601,1.52788
4.5,79.0395,31.6971,28.6167,18.7257,0.953973,0.978816,1.59029
4.6,80.5963,32.4722,29.1916,18.9325,0.979988,1.01766,1.64693
4.7,82.1522,33.24,29.7671,19.1452,1.00736,1.04932,1.70006
4.8,83.7218,34.0102,30.336,19.3756,1.02785,1.08767,1.74028
4.9,85.2648,34.793,30.8839,19.588,1.04547,1.11097,1.76983
5.0,86.8226,35.5803,31.4513,19.7909,1.06014,1.11783,1.79934
5.1,88.3326,36.3599,32.0015,19.9712,1.09226,1.1325,1.82586
5.2,89.82,37.12,32.5427,20.1573,1.13259,1.14236,1.84439
5.3,91.2831,37.8478,33.1034,20.3319,1.16234,1.16392,1.88015
5.4,92.7624,38.6071,33.6456,20.5096,1.20505,1.19232,1.90501
5.5,94.288,39.3765,34.2226,20.6889,1.22925,1.20268,1.92586
5.6,95.8186,40.1603,34.7676,20.8906,1.25618,1.2404,1.94804
5.7,97.3282,40.927,35.299,21.1022,1.28015,1.25345,1.9525
5.8,98.8726,41.7012,35.8488,21.3226,1.33235,1.25947,1.97724
5.9,100.426,42.4783,36.4144,21.5333,1.38009,1.27397,1.99126
6.0,102.002,43.2761,36.9654,21.7607,1.43626,1.28425,2.00957
6.1,103.556,44.0595,37.5134,21.9831,1.47972,1.32875,2.05792
6.2,105.019,44.7813,38.0421,22.1957,1.54906,1.37682,2.12088
6.3,106.533,45.5067,38.5801,22.4459,1.62098,1.44324,2.17619
6.4,108.029,46.2239,39.1188,22.6858,1.68194,1.50096,2.21414
6.5,109.533,46.9896,39.6287,22.9148,1.73023,1.5842,2.21375
6.6,111.029,47.7716,40.1343,23.1227,1.75748,1.66403,2.21625
6.7,112.627,48.5899,40.6588,23.378,1.77315,1.72559,2.20996
6.8,114.149,49.34,41.1573,23.6519,1.7852,1.78879,2.19898
6.9,115.619,50.1233,41.5897,23.9056,1.84013,1.83444,2.1768
7.0,117.134,50.9254,42.0645,24.1438,1.935,1.8702,2.15067
7.1,118.617,51.7535,42.504,24.3597,2.01654,1.91168,2.15629
7.2,120.1,52.5948,42.9446,24.5602,2.07624,1.97392,2.16614
7.3,121.518,53.3954,43.3425,24.7801,2.14682,2.02765,2.19287
7.4,122.894,54.1742,43.7863,24.9336,2.19877,2.05459,2.19968
7.5,124.209,54.9483,44.1926,25.0681,2.25304,2.05195,2.22755
7.6,125.484,55.715,44.6025,25.1669,2.32775,2.06268,2.20823
7.7,126.754,56.4763,45.0182,25.2594,2.46492,2.0375,2.21679
7.8,127.957,57.2128,45.3717,25.3723,2.61028,1.96628,2.22658
7.9,129.145,57.9937,45.6475,25.5042,2.7062,1.86958,2.269
8.0,130.362,58.785,45.9433,25.6332,2.76364,1.84981,2.31938
8.1,131.616,59.6055,46.2468,25.7633,2.80719,1.89144,2.36393
8.2,132.967,60.4696,46.566,25.9312,2.8392,1.89925,2.39853
8.3,134.177,61.2442,46.8663,26.0666,2.78529,1.87624,2.36313
8.4,135.401,61.9693,47.2385,26.1927,2.84062,1.89167,2.26856
8.5,136.662,62.7378,47.5873,26.3372,2.88631,1.92683,2.18344
8.6,137.773,63.5226,47.89,26.3605,2.83123,1.92291,2.08218
8.7,139.097,64.4984,48.1691,26.429,2.84935,1.81566,2.01468
8.8,140.501,65.6176,48.3362,26.5473,2.89378,1.80209,1.93522
8.9,141.88,66.6102,48.5926,26.6772,2.93308,1.77348,1.83047
9.0,142.971,67.4517,48.7198,26.7994,2.9749,1.74129,1.68203
9.1,143.984,68.1999,48.8782,26.9062,2.98118,1.82687,1.51919
9.2,144.961,69.0155,49.0919,26.8533,2.98251,1.8479,1.44445
9.3,146.026,69.7942,49.3233,26.908,2.97847,1.73465,1.39414
9.4,147.123,70.6339,49.5252,26.9643,3.00843,1.61547,1.38728
9.5,148.765,71.5284,50.1768,27.0596,3.12234,1.54024,1.25718
9.6,150.808,72.583,51.0649,27.1605,3.09572,1.60245,1.20612
9.7,152.191,73.1601,51.8642,27.1664,3.1627,1.36297,0.924574
9.8,154.418,74.374,52.8231,27.2212,3.37955,1.06449,0.826356
9.9,156.269,75.1216,53.8566,27.2905,3.4236,1.01396,0.520041
10.0,157.785,76.0495,54.7885,26.9469,4.12559,1.14311,0.538523
