Time (ns),trace,xx,yy,zz,yx,zx,zy
0.0,0.0,0.0,0.0,0.0,0.0,0.0,0.0
0.1,2.08247,0.700251,0.708263,0.673961,0.00977727,-0.000532566,-0.0063461
0.2,4.1377,1.39876,1.41928,1.31966,0.0303329,-0.00231736,-0.00973334
0.3,6.16631,2.09158,2.12886,1.94587,0.0480727,-0.0188073,-0.0137757
0.4,8.18687,2.78017,2.84245,2.56425,0.0634672,-0.0311943,-0.00999871
0.5,10.2108,3.48617,3.55914,3.16554,0.0773303,-0.0520798,0.000353859
0.6,12.2253,4.18437,4.28105,3.75984,0.104253,-0.0684091,0.00669763
0.7,14.226,4.88376,5.00822,4.33403,0.133809,-0.0849444,0.0256737
0.8,16.2034,5.57046,5.73759,4.89539,0.174036,-0.104691,0.0366804
0.9,18.1719,6.25757,6.46736,5.44694,0.210474,-0.123699,0.049036
1.0,20.1277,6.95453,7.17524,5.99792,0.249091,-0.148707,0.0599398
1.1,22.0581,7.65573,7.87589,6.52647,0.286387,-0.179017,0.0804607
1.2,23.9683,8.35405,8.56809,7.04619,0.317908,-0.197989,0.0996959
1.3,25.8474,9.04284,9.25988,7.54464,0.336067,-0.220625,0.117911
1.4,27.7309,9.74733,9.96171,8.0219,0.35349,-0.245074,0.141468
1.5,29.612,10.4443,10.6811,8.48657,0.368864,-0.264886,0.159309
1.6,31.4786,11.1401,11.39,8.94857,0.383244,-0.282613,0.178393
1.7,33.3758,11.8467,12.1174,9.41175,0.411088,-0.302993,0.202369
1.8,35.27,12.5587,12.849,9.86229,0.450888,-0.320843,0.229626
1.9,37.1645,13.2611,13.6065,10.2969,0.498592,-0.332168,0.260196
2.0,39.0728,13.9657,14.3826,10.7245,0.534023,-0.343036,0.285503
2.1,41.0,14.6911,15.1519,11.1571,0.555309,-0.366835,0.308965
2.2,42.9286,15.4194,15.9258,11.5834,0.563973,-0.378595,0.331043
2.3,44.8365,16.1435,16.7115,11.9814,0.576458,-0.387704,0.356754
2.4,46.7416,16.8504,17.5114,12.3798,0.581812,-0.404188,0.375443
2.5,48.6594,17.5598,18.305,12.7946,0.601458,-0.421166,0.393713
2.6,50.559,18.2447,19.1089,13.2054,0.630593,-0.441728,0.412545
2.7,52.4357,18.9255,19.9112,13.5989,0.653855,-0.464299,0.44111
2.8,54.3112,19.5867,20.7217,14.0027,0.674618,-0.480123,0.476445
2.9,56.2109,20.2455,21.5463,14.4191,0.707265,-0.505707,0.498106
3.0,58.1131,20.9149,22.3775,14.8208,0.751257,-0.527385,0.513366
3.1,59.9863,21.5786,23.19,15.2178,0.788752,-0.556015,0.540014
3.2,61.841,22.2364,23.9823,15.6223,0.842088,-0.571784,0.547447
3.3,63.6961,22.8964,24.771,16.0287,0.904044,-0.597601,0.551204
3.4,65.5672,23.5563,25.554,16.4569,0.958022,-0.616895,0.561449
3.5,67.4239,24.2198,26.3346,16.8695,1.02365,-0.639358,0.58406
3.6,69.3142,24.9054,27.1376,17.2712,1.08896,-0.669199,0.604543
3.7,71.2566,25.6224,27.9597,17.6745,1.14251,-0.712237,0.619313
3.8,73.1613,26.327,28.777,18.0573,1.18075,-0.757733,0.647788
3.9,74.9822,27.0101,29.5548,18.4174,1.22926,-0.790823,0.687412
4.0,76.7684,27.683,30.3256,18.7598,1.26113,-0.828014,0.747951
4.1,78.572,28.3615,31.0966,19.1138,1.28827,-0.863734,0.802167
4.2,80.4046,29.0389,31.9115,19.4542,1.32285,-0.898892,0.85274
4.3,82.2013,29.7167,32.7146,19.77,1.34728,-0.939135,0.898857
4.4,83.9954,30.3802,33.5509,20.0644,1.37749,-0.989731,0.93615
4.5,85.8247,31.0928,34.4155,20.3164,1.41644,-1.02946,0.973574
4.6,87.6682,31.817,35.2771,20.5741,1.45138,-1.07422,1.01228
4.7,89.4994,32.5381,36.1218,20.8394,1.49321,-1.11329,1.05079
4.8,91.289,33.2427,36.9591,21.0872,1.55349,-1.1514,1.09274
4.9,93.07,33.9439,37.7924,21.3336,1.59141,-1.18357,1.13591
5.0,94.905,34.6751,38.6404,21.5895,1.64718,-1.23856,1.19366
5.1,96.7719,35.4271,39.5027,21.8421,1.71314,-1.28029,1.25004
5.2,98.6503,36.1819,40.37,22.0984,1.77731,-1.29772,1.29919
5.3,100.43,36.8966,41.2164,22.3169,1.83493,-1.29944,1.36154
5.4,102.266,37.6659,42.0706,22.5297,1.89491,-1.31207,1.43872
5.5,104.172,38.427,42.9646,22.7803,1.94889,-1.33117,1.51114
5.6,106.043,39.2,43.8564,22.987,1.97967,-1.37378,1.59863
5.7,107.912,39.9727,44.7813,23.1576,1.99764,-1.42759,1.69983
5.8,109.834,40.7671,45.7294,23.3375,2.00468,-1.4738,1.79339
5.9,111.706,41.5395,46.6565,23.5095,2.01773,-1.51889,1.91427
6.0,113.613,42.3088,47.6086,23.6953,2.04103,-1.60198,2.04915
6.1,115.479,43.0646,48.5446,23.8699,2.06575,-1.6859,2.16144
6.2,117.309,43.796,49.4576,24.0551,2.09325,-1.77309,2.28802
6.3,119.186,44.554,50.3872,24.2451,2.14278,-1.8907,2.36226
6.4,121.02,45.3114,51.2593,24.4494,2.20575,-2.00548,2.41396
6.5,122.808,46.0661,52.0916,24.6502,2.25747,-2.10746,2.42616
6.6,124.55,46.7969,52.8807,24.8729,2.28627,-2.18297,2.41186
6.7,126.292,47.4924,53.6837,25.1163,2.32284,-2.25387,2.38774
6.8,128.006,48.1826,54.4965,25.3274,2.34847,-2.33767,2.32735
6.9,129.773,48.8954,55.3441,25.5337,2.38462,-2.40376,2.25973
7.0,131.488,49.5873,56.1204,25.7798,2.43828,-2.46197,2.2205
7.1,133.287,50.3148,56.9458,26.0269,2.51356,-2.57501,2.18017
7.2,135.065,51.0369,57.7456,26.2824,2.56856,-2.67134,2.10902
7.3,136.909,51.7938,58.4731,26.6423,2.61946,-2.75859,2.05198
7.4,138.736,52.5421,59.2676,26.9263,2.66362,-2.8651,1.98576
7.5,140.591,53.2943,60.066,27.2307,2.72912,-2.94078,1.94187
7.6,142.311,54.0131,60.8374,27.4606,2.80667,-3.01068,1.88442
7.7,143.955,54.7236,61.5892,27.6424,2.87308,-3.07475,1.84355
7.8,145.617,55.4895,62.3146,27.813,2.89646,-3.16747,1.76723
7.9,147.328,56.2457,63.0985,27.9841,2.89846,-3.32942,1.74946
8.0,148.992,57.0136,63.807,28.1717,2.90282,-3.44474,1.69
8.1,150.542,57.7618,64.4846,28.2954,2.9297,-3.53375,1.63992
8.2,151.94,58.5252,65.0935,28.3216,2.94817,-3.60731,1.56302
8.3,153.251,59.2055,65.734,28.3113,3.00432,-3.69752,1.47773
8.4,154.46,59.7826,66.3453,28.3323,3.1001,-3.77702,1.40301
8.5,155.765,60.3201,67.0873,28.3578,3.2066,-3.82123,1.30818
8.6,157.096,60.782,67.8469,28.4666,3.32035,-3.87612,1.23836
8.7,158.339,61.3036,68.5258,28.5098,3.41951,-3.92567,1.12267
8.8,159.62,61.7804,69.2095,28.63,3.53523,-4.07462,1.01301
8.9,160.885,62.3058,69.8501,28.7287,3.6263,-4.14915,0.917701
9.0,162.195,62.8914,70.5292,28.7749,3.75314,-4.29589,0.831615
9.1,163.772,63.5837,71.4,28.7882,3.85106,-4.48336,0.635051
9.2,165.139,64.2114,72.0534,28.8738,3.90004,-4.62544,0.456362
9.3,166.487,64.8811,72.7337,28.8718,4.08762,-4.84256,0.212581
9.4,167.542,65.4735,73.2823,28.786,4.10739,-5.04635,0.137254
9.5,168.711,65.8361,74.0528,28.8222,4.06766,-5.2751,0.126297
9.6,169.998,65.9694,75.2099,28.819,3.83293,-5.46578,0.325499
9.7,171.31,66.3122,76.1558,28.842,3.65167,-5.35304,0.702382
9.8,172.399,66.9114,77.0685,28.4194,3.79799,-4.78423,1.05867
9.9,173.691,67.3967,77.6634,28.6305,3.8568,-4.34771,1.44438
10.0,175.674,68.8448,77.537,29.2923,4.11538,-4.64558,1.49767
