Time (ns),trace,xx,yy,zz,yx,zx,zy
0.0,0.0,0.0,0.0,0.0,0.0,0.0,0.0
0.1,2.10897,0.705865,0.721589,0.68152,0.00839785,-0.00309068,-0.000491939
0.2,4.17019,1.40705,1.43099,1.33215,0.0197463,-0.00744289,0.00672315
0.3,6.19022,2.09914,2.13404,1.95704,0.0293746,-0.0173633,0.0129534
0.4,8.19301,2.78049,2.85274,2.55978,0.0289822,-0.0287155,0.0276926
0.5,10.2121,3.4604,3.58615,3.16556,0.0347581,-0.0251009,0.0517987
0.6,12.2179,4.14141,4.31661,3.75984,0.033656,-0.0289972,0.0721044
0.7,14.2104,4.82879,5.03862,4.34296,0.0101764,-0.0330224,0.0976615
0.8,16.1984,5.5327,5.76151,4.90416,-0.00383785,-0.0409867,0.119586
0.9,18.1629,6.23703,6.48098,5.44484,-0.0137356,-0.0431492,0.12874
1.0,20.1339,6.95359,7.21491,5.96537,-0.0212613,-0.0522516,0.133929
1.1,22.0513,7.6455,7.9312,6.47458,-0.0223633,-0.0667878,0.137831
1.2,23.9446,8.32971,8.63035,6.9845,-0.0168619,-0.0881003,0.141164
1.3,25.8437,9.01132,9.33289,7.49945,-0.0261911,-0.103702,0.137724
1.4,27.7309,9.69205,10.0367,8.00212,-0.0338941,-0.106909,0.140987
1.5,29.5839,10.3599,10.7251,8.49899,-0.04362,-0.106281,0.147609
1.6,31.4284,11.0413,11.4043,8.98281,-0.0412137,-0.107024,0.157273
1.7,33.2593,11.7167,12.0819,9.46066,-0.0320938,-0.114287,0.155393
1.8,35.1073,12.4063,12.7647,9.93627,-0.0386606,-0.107611,0.161101
1.9,36.9688,13.1054,13.4464,10.417,-0.0416951,-0.0976738,0.160156
2.0,38.8392,13.7919,14.1495,10.8977,-0.0527028,-0.10206,0.164709
2.1,40.6909,14.4761,14.8367,11.3781,-0.060983,-0.101391,0.164172
2.2,42.5441,15.163,15.5429,11.8382,-0.07191,-0.104632,0.164885
2.3,44.3633,15.8483,16.2199,12.2951,-0.0723824,-0.100885,0.158466
2.4,46.1797,16.5333,16.8951,12.7513,-0.0836683,-0.0968896,0.149798
2.5,47.9728,17.2077,17.5644,13.2007,-0.106536,-0.0802635,0.160967
2.6,49.7504,17.8896,18.2277,13.6332,-0.133999,-0.0647493,0.16297
2.7,51.5284,18.5751,18.8941,14.0593,-0.163138,-0.0594346,0.180185
2.8,53.3232,19.2595,19.583,14.4808,-0.215066,-0.0420787,0.193302
2.9,55.1315,19.9298,20.2926,14.9091,-0.261406,-0.0423898,0.20899
3.0,56.9461,20.5847,21.0111,15.3503,-0.308019,-0.036874,0.231054
3.1,58.7488,21.2334,21.7264,15.789,-0.364771,-0.0410791,0.252608
3.2,60.5577,21.8804,22.4436,16.2336,-0.428413,-0.0359664,0.274555
3.3,62.3941,22.557,23.1744,16.6627,-0.47528,-0.0366172,0.295054
3.4,64.1983,23.2126,23.9057,17.0801,-0.546274,-0.025085,0.315084
3.5,65.9617,23.8393,24.6168,17.5055,-0.601101,-0.0140457,0.344824
3.6,67.689,24.4623,25.336,17.8906,-0.652274,-0.00530691,0.381294
3.7,69.3921,25.0871,26.0526,18.2524,-0.700345,0.00753004,0.404376
3.8,71.0792,25.724,26.7423,18.6128,-0.730948,0.0264447,0.416277
3.9,72.7337,26.3434,27.4507,18.9395,-0.755381,0.0506047,0.438465
4.0,74.3856,26.9699,28.1521,19.2636,-0.782182,0.0750375,0.465601
4.1,76.0322,27.6002,28.8515,19.5806,-0.815937,0.105691,0.479574
4.2,77.6725,28.2346,29.5374,19.9006,-0.881627,0.123578,0.49544
4.3,79.3536,28.8813,30.2395,20.2328,-0.942598,0.184822,0.508224
4.4,81.0125,29.5213,30.9248,20.5664,-0.985488,0.239825,0.522145
4.5,82.6876,30.1847,31.6224,20.8805,-1.04817,0.286942,0.532922
4.6,84.3831,30.8438,32.3606,21.1787,-1.1052,0.322852,0.54822
4.7,86.1351,31.4969,33.1243,21.5139,-1.14161,0.32993,0.564813
4.8,87.9409,32.1913,33.8968,21.8528,-1.1989,0.329951,0.582578
4.9,89.7418,32.9071,34.6564,22.1783,-1.2656,0.334882,0.590431
5.0,91.5506,33.6191,35.4221,22.5094,-1.31663,0.350657,0.588598
5.1,93.3849,34.3602,36.2199,22.8048,-1.37258,0.367951,0.586206
5.2,95.2269,35.0963,37.0128,23.1177,-1.42831,0.372712,0.584179
5.3,97.0821,35.8353,37.8174,23.4294,-1.50333,0.366835,0.586636
5.4,98.9186,36.5591,38.6251,23.7344,-1.57046,0.347922,0.586797
5.5,100.722,37.2678,39.4283,24.0261,-1.60721,0.354002,0.589236
5.6,102.533,37.9933,40.2024,24.3374,-1.64399,0.361818,0.583357
5.7,104.335,38.7034,41.0025,24.6286,-1.66022,0.348953,0.561494
5.8,106.111,39.4159,41.7961,24.8986,-1.66913,0.311554,0.526196
5.9,107.79,40.0898,42.5624,25.1378,-1.66293,0.29483,0.467028
6.0,109.44,40.7464,43.3459,25.3475,-1.65268,0.277989,0.430721
6.1,111.078,41.396,44.1259,25.5558,-1.6736,0.252398,0.407083
6.2,112.689,42.0216,44.8875,25.7803,-1.70428,0.242511,0.39696
6.3,114.22,42.6444,45.6051,25.9701,-1.70094,0.240625,0.373305
6.4,115.764,43.2778,46.3353,26.1507,-1.67798,0.23941,0.362858
6.5,117.267,43.8953,47.0935,26.2779,-1.66293,0.240245,0.314457
6.6,118.775,44.5048,47.8339,26.4367,-1.61498,0.248583,0.276368
6.7,120.284,45.1092,48.5634,26.6116,-1.5589,0.266132,0.253609
6.8,121.738,45.6622,49.294,26.7816,-1.53859,0.266863,0.196127
6.9,123.192,46.2089,50.0309,26.9524,-1.53998,0.250819,0.132431
7.0,124.741,46.8255,50.7584,27.1573,-1.54914,0.266099,0.0361059
7.1,126.284,47.4321,51.4752,27.3765,-1.56127,0.280413,-0.060663
7.2,127.871,48.0511,52.2459,27.5736,-1.54262,0.315737,-0.113391
7.3,129.457,48.6983,52.9441,27.8147,-1.49644,0.344396,-0.223962
7.4,131.035,49.3609,53.6498,28.0241,-1.42016,0.338004,-0.343648
7.5,132.645,49.9483,54.4563,28.2408,-1.31662,0.315435,-0.449953
7.6,134.247,50.6142,55.1752,28.4573,-1.21232,0.305115,-0.572915
7.7,135.753,51.2587,55.85,28.6441,-1.08306,0.29497,-0.684275
7.8,137.156,51.885,56.4976,28.7737,-0.965312,0.258727,-0.816289
7.9,138.615,52.5333,57.1959,28.8859,-0.879135,0.219627,-0.911026
8.0,140.057,53.2059,57.9032,28.9484,-0.814478,0.142798,-0.980185
8.1,141.326,53.8389,58.4326,29.0541,-0.795562,0.0654766,-1.00293
8.2,142.669,54.5063,58.9983,29.1641,-0.758214,0.00558478,-1.01234
8.3,143.881,55.1339,59.4941,29.2526,-0.764899,-0.0773439,-1.08778
8.4,145.217,55.7915,60.0792,29.3465,-0.723249,-0.186344,-1.09758
8.5,146.603,56.4717,60.7216,29.4092,-0.700221,-0.322979,-1.16291
8.6,148.061,57.2126,61.3745,29.4741,-0.652145,-0.500998,-1.32712
8.7,149.595,57.97,62.1064,29.5187,-0.574332,-0.659571,-1.43361
8.8,151.308,58.8359,62.8804,29.5914,-0.564801,-0.833816,-1.54415
8.9,152.963,59.7059,63.621,29.636,-0.61711,-0.950827,-1.6425
9.0,154.905,60.6738,64.4605,29.7705,-0.707123,-1.0542,-1.69372
9.1,156.578,61.5212,65.1797,29.8769,-0.661594,-1.06915,-1.77208
9.2,158.153,62.3985,65.7136,30.0407,-0.615727,-1.11108,-1.85841
9.3,159.817,63.4035,66.2749,30.1385,-0.651822,-1.05484,-1.89675
9.4,161.443,64.3877,66.8402,30.2152,-0.601129,-1.05274,-1.73897
9.5,162.922,65.2564,67.3852,30.2801,-0.568099,-1.02283,-1.54041
9.6,163.871,65.7476,67.7777,30.3458,-0.337686,-1.15747,-1.33283
9.7,163.999,65.5772,68.1035,30.3179,-0.197739,-1.24775,-1.07651
9.8,164.834,65.4434,68.8707,30.5203,0.136289,-1.45754,-1.01912
9.9,166.667,65.5164,70.2219,30.9286,0.577612,-1.69515,-0.780016
10.0,169.628,67.1766,71.5154,30.9358,1.20396,-2.22721,-0.61041
