Time (ns),trace,xx,yy,zz,yx,zx,zy
0.0,0.0,0.0,0.0,0.0,0.0,0.0,0.0
0.1,2.0818,0.703956,0.705701,0.67214,0.00106545,0.00355497,-0.00062797
0.2,4.11694,1.41876,1.39955,1.29864,0.00477644,0.00507854,-0.00536065
0.3,6.1141,2.13195,2.07926,1.90289,0.00642758,0.00108367,-0.0165258
0.4,8.11952,2.85801,2.76067,2.50084,0.0171014,-0.00539453,-0.0310491
0.5,10.1039,3.58856,3.44253,3.07278,0.02939,-0.0250272,-0.0461266
0.6,12.0753,4.3204,4.12729,3.62762,0.0412554,-0.0429245,-0.0566489
0.7,14.0208,5.04895,4.80336,4.16847,0.0456436,-0.0619704,-0.0613022
0.8,15.9408,5.7735,5.46076,4.70658,0.0433592,-0.0728257,-0.0573202
0.9,17.8517,6.50523,6.11385,5.23267,0.0399082,-0.0797648,-0.0536762
1.0,19.7641,7.24543,6.77415,5.74449,0.0434447,-0.0899869,-0.0405259
1.1,21.6589,7.96896,7.442,6.24795,0.0511964,-0.0964399,-0.0243221
1.2,23.5203,8.70257,8.10556,6.71216,0.0569919,-0.0975973,-0.0129504
1.3,25.359,9.41056,8.77354,7.17492,0.0594962,-0.100812,0.00773316
1.4,27.2102,10.1266,9.44456,7.63899,0.0581427,-0.113041,0.0205657
1.5,29.0415,10.8186,10.1245,8.09853,0.0424102,-0.11916,0.0294906
1.6,30.8399,11.4978,10.7937,8.54837,0.0373087,-0.124525,0.050342
1.7,32.6259,12.1795,11.4664,8.98011,0.0338209,-0.126588,0.0742974
1.8,34.4164,12.8805,12.1262,9.4097,0.0285451,-0.122297,0.0955297
1.9,36.1951,13.5988,12.7735,9.82282,0.0160057,-0.127368,0.107919
2.0,37.9817,14.3291,13.4195,10.2331,4.50111e-05,-0.146527,0.123733
2.1,39.7287,15.0318,14.0651,10.6317,-0.0080421,-0.156607,0.125448
2.2,41.4454,15.7149,14.7055,11.025,-0.00687474,-0.169058,0.106962
2.3,43.1375,16.3917,15.3403,11.4055,-0.0114326,-0.167072,0.0981035
2.4,44.825,17.0663,15.9696,11.7891,-0.0186556,-0.165366,0.0872912
2.5,46.4938,17.7233,16.6073,12.1632,-0.0357636,-0.161205,0.0802794
2.6,48.1099,18.3714,17.2135,12.525,-0.0527095,-0.162377,0.0804793
2.7,49.6829,19.0268,17.8012,12.8549,-0.0694779,-0.160271,0.0791566
2.8,51.2639,19.6919,18.3703,13.2017,-0.0945821,-0.163648,0.0610399
2.9,52.8166,20.337,18.935,13.5447,-0.137509,-0.156255,0.0352488
3.0,54.3605,20.9815,19.5087,13.8702,-0.184613,-0.158522,-0.00969694
3.1,55.9076,21.6217,20.0856,14.2003,-0.242565,-0.164643,-0.0544413
3.2,57.4343,22.2637,20.6378,14.5328,-0.291652,-0.179542,-0.113936
3.3,58.9768,22.9076,21.1972,14.8719,-0.333731,-0.193649,-0.176693
3.4,60.5451,23.5476,21.7694,15.2281,-0.385822,-0.201277,-0.253663
3.5,62.1109,24.1886,22.3378,15.5845,-0.427134,-0.21322,-0.318178
3.6,63.6426,24.8029,22.8991,15.9405,-0.462321,-0.21046,-0.380033
3.7,65.1589,25.4363,23.452,16.2706,-0.484228,-0.201989,-0.434076
3.8,66.6584,26.0711,23.999,16.5883,-0.499555,-0.201909,-0.478603
3.9,68.2069,26.7266,24.5681,16.9122,-0.515003,-0.193233,-0.53054
4.0,69.7549,27.3876,25.1317,17.2356,-0.542244,-0.169714,-0.58101
4.1,71.3558,28.0813,25.7115,17.5631,-0.573167,-0.167767,-0.624145
4.2,72.9807,28.7864,26.3211,17.8731,-0.59881,-0.17787,-0.665682
4.3,74.6406,29.5158,26.9286,18.1962,-0.628415,-0.204979,-0.693588
4.4,76.3331,30.2558,27.5688,18.5085,-0.654658,-0.214703,-0.726252
4.5,77.9841,30.9975,28.1619,18.8247,-0.669952,-0.226499,-0.759262
4.6,79.6643,31.7438,28.7726,19.1479,-0.691511,-0.230254,-0.772142
4.7,81.3379,32.4557,29.4048,19.4774,-0.693394,-0.241333,-0.768541
4.8,83.003,33.1653,30.0467,19.791,-0.716362,-0.245817,-0.768045
4.9,84.698,33.8756,30.7139,20.1085,-0.741046,-0.25765,-0.779768
5.0,86.4011,34.6068,31.3852,20.4091,-0.769176,-0.255481,-0.811074
5.1,88.0658,35.3305,32.0542,20.6812,-0.789792,-0.258946,-0.864567
5.2,89.7492,36.034,32.7294,20.9858,-0.836639,-0.285068,-0.920758
5.3,91.4125,36.7607,33.3496,21.3023,-0.899938,-0.285638,-0.979563
5.4,93.0182,37.4564,33.9448,21.617,-0.973262,-0.280777,-1.05954
5.5,94.6311,38.1549,34.5492,21.927,-1.07092,-0.26202,-1.12796
5.6,96.2155,38.8319,35.1576,22.2259,-1.16498,-0.239999,-1.1895
5.7,97.7716,39.4908,35.7625,22.5183,-1.23616,-0.192775,-1.27005
5.8,99.3108,40.1359,36.368,22.8069,-1.31192,-0.169447,-1.35065
5.9,100.882,40.8223,36.9656,23.0938,-1.37702,-0.151375,-1.42031
6.0,102.423,41.5197,37.5384,23.3653,-1.42724,-0.150311,-1.4843
6.1,103.941,42.2034,38.0936,23.6439,-1.46488,-0.151827,-1.58168
6.2,105.513,42.9047,38.6841,23.9245,-1.49102,-0.139931,-1.66151
6.3,107.034,43.5912,39.2546,24.188,-1.55406,-0.161895,-1.74643
6.4,108.536,44.3226,39.7679,24.4452,-1.61404,-0.151182,-1.83478
6.5,110.019,44.9999,40.3232,24.696,-1.66863,-0.151083,-1.91299
6.6,111.509,45.6674,40.8902,24.9512,-1.77001,-0.177563,-1.98055
6.7,112.93,46.256,41.4427,25.231,-1.85901,-0.21247,-2.0683
6.8,114.421,46.8822,42.0188,25.5203,-1.94631,-0.242856,-2.17217
6.9,115.792,47.4839,42.5715,25.7362,-2.0215,-0.281922,-2.24578
7.0,117.122,48.0423,43.1252,25.9547,-2.09576,-0.358534,-2.31451
7.1,118.441,48.5979,43.7308,26.1126,-2.19948,-0.392362,-2.38096
7.2,119.854,49.1819,44.4141,26.258,-2.30149,-0.478947,-2.42177
7.3,121.278,49.798,45.0765,26.4037,-2.4339,-0.584703,-2.43515
7.4,122.729,50.4081,45.7395,26.5819,-2.54158,-0.70124,-2.45062
7.5,124.222,51.1299,46.3561,26.7364,-2.64206,-0.846517,-2.44741
7.6,125.766,51.9114,46.9829,26.8712,-2.72024,-0.980658,-2.4013
7.7,127.265,52.6756,47.6406,26.9483,-2.77652,-1.09719,-2.38546
7.8,128.794,53.4274,48.3749,26.992,-2.8056,-1.20188,-2.35918
7.9,130.37,54.1505,49.1811,27.0388,-2.86341,-1.30288,-2.29681
8.0,131.936,54.9551,49.9418,27.0388,-2.9268,-1.39674,-2.22723
8.1,133.419,55.7961,50.6248,26.9978,-2.94938,-1.4801,-2.07477
8.2,134.979,56.6368,51.3025,27.0398,-2.97465,-1.53554,-1.98744
8.3,136.33,57.388,51.8842,27.0578,-3.00175,-1.65449,-1.88252
8.4,137.765,58.1475,52.4555,27.1617,-3.04829,-1.7652,-1.6743
8.5,139.134,58.9819,52.9465,27.2056,-3.07631,-1.84715,-1.45925
8.6,140.674,59.9736,53.4846,27.2154,-3.103,-1.91918,-1.27442
8.7,142.404,61.0306,54.1004,27.2727,-3.09063,-1.96398,-1.07717
8.8,144.198,61.9793,54.7727,27.4458,-3.11703,-2.03379,-0.886064
8.9,145.689,62.8527,55.2993,27.5375,-3.0438,-2.06692,-0.608796
9.0,147.07,63.5956,55.8203,27.6543,-2.96327,-2.18294,-0.388403
9.1,148.649,64.3828,56.3996,27.8664,-2.81682,-2.26208,-0.212134
9.2,150.08,65.2403,56.8786,27.9608,-2.74329,-2.38751,-0.0901845
9.3,152.099,66.4653,57.5013,28.1324,-2.66795,-2.53521,0.147752
9.4,154.023,67.5691,58.1347,28.319,-2.63525,-2.65405,0.356349
9.5,155.626,68.5523,58.5974,28.4764,-2.56354,-2.70474,0.603829
9.6,157.115,69.3997,59.0879,28.6278,-2.42806,-2.76636,0.758929
9.7,158.637,70.2121,59.6899,28.7352,-2.30971,-2.7819,0.796966
9.8,160.33,71.019,60.3296,28.9817,-2.05896,-3.02199,0.739861
9.9,162.517,72.0432,60.8042,29.6692,-1.64554,-3.2681,0.699292
10.0,164.4,72.1286,62.4044,29.8665,-1.20307,-2.97328,0.419998
