Time (ns),trace,xx,yy,zz,yx,zx,zy
0.0,0.0,0.0,0.0,0.0,0.0,0.0,0.0
0.1,2.07552,0.697352,0.705059,0.673107,0.00444748,-0.0077106,-0.0056423
0.2,4.10069,1.37953,1.40398,1.31718,0.00504184,-0.0173534,-0.00932597
0.3,6.06823,2.05195,2.08638,1.9299,0.00351356,-0.025905,-0.00222243
0.4,8.02238,2.73013,2.78132,2.51093,0.00602324,-0.0295115,0.00950645
0.5,9.93045,3.39678,3.45185,3.08181,0.0207085,-0.0361557,0.01725
0.6,11.8364,4.06572,4.11023,3.66044,0.038933,-0.034449,0.0189557
0.7,13.7314,4.74199,4.77007,4.21935,0.0551289,-0.0257537,0.021279
0.8,15.6145,5.42344,5.42845,4.76259,0.0636997,-0.0301445,0.0247717
0.9,17.4881,6.09155,6.09068,5.30586,0.0752713,-0.0261447,0.0162776
1.0,19.3616,6.75848,6.75865,5.84445,0.0939524,-0.0155338,0.0134985
1.1,21.2176,7.42621,7.42054,6.37084,0.0980662,0.00234721,0.0148681
1.2,23.0545,8.09382,8.07788,6.88279,0.0899955,0.0295257,0.0362136
1.3,24.8882,8.75832,8.74644,7.38341,0.0903913,0.0507933,0.0579113
1.4,26.7141,9.43325,9.40428,7.87653,0.0910501,0.0552427,0.0773209
1.5,28.5206,10.0995,10.0613,8.3598,0.100291,0.058156,0.103922
1.6,30.3242,10.7574,10.7257,8.84109,0.10361,0.066356,0.131137
1.7,32.1229,11.4188,11.3817,9.32232,0.118354,0.0668763,0.161062
1.8,33.8903,12.0599,12.0427,9.78768,0.12767,0.0673597,0.188562
1.9,35.6395,12.706,12.7076,10.2259,0.1312,0.0662064,0.21805
2.0,37.4058,13.3489,13.3882,10.6687,0.131325,0.0563063,0.250606
2.1,39.1622,13.9958,14.0701,11.0962,0.13276,0.040638,0.27915
2.2,40.907,14.6386,14.7705,11.4978,0.13794,0.037953,0.311641
2.3,42.6303,15.2756,15.4658,11.8889,0.12877,0.0283477,0.365896
2.4,44.3432,15.915,16.1688,12.2595,0.126848,0.0371326,0.41084
2.5,46.0369,16.5642,16.8614,12.6113,0.129655,0.0370465,0.460531
2.6,47.7564,17.2309,17.5561,12.9695,0.12357,0.0367212,0.508968
2.7,49.4815,17.9065,18.2537,13.3213,0.120517,0.0260995,0.559744
2.8,51.2001,18.5686,18.9408,13.6907,0.104783,0.0153285,0.613749
2.9,52.8943,19.2179,19.6294,14.047,0.0881054,0.0129946,0.657913
3.0,54.5673,19.8652,20.3075,14.3946,0.0657436,-0.000805853,0.706959
3.1,56.2165,20.509,20.9817,14.7259,0.0438796,-0.0179291,0.757571
3.2,57.8385,21.1651,21.6393,15.0341,0.0234248,-0.0389744,0.809993
3.3,59.5182,21.8592,22.3078,15.3512,-0.000696806,-0.0596166,0.848463
3.4,61.1899,22.5417,22.9706,15.6775,-0.016033,-0.0837236,0.885276
3.5,62.8863,23.2393,23.6444,16.0027,-0.0124823,-0.099407,0.935803
3.6,64.5794,23.9284,24.3111,16.34,-0.00698068,-0.120498,0.987247
3.7,66.2648,24.6261,24.979,16.6597,-0.00317788,-0.141581,1.03954
3.8,67.9676,25.335,25.6631,16.9695,-0.00750929,-0.164459,1.09493
3.9,69.6474,26.0394,26.3182,17.2898,-0.0100611,-0.164743,1.13539
4.0,71.3495,26.745,26.9892,17.6153,-0.0324237,-0.158138,1.17968
4.1,73.0509,27.4687,27.6835,17.8987,-0.0584169,-0.139931,1.20865
4.2,74.7216,28.1911,28.3663,18.1642,-0.0736247,-0.12487,1.24795
4.3,76.4072,28.9342,29.0393,18.4336,-0.0801161,-0.107067,1.2804
4.4,78.0764,29.6851,29.6947,18.6966,-0.0749275,-0.0978036,1.30512
4.5,79.713,30.4172,30.3286,18.9672,-0.0577382,-0.101604,1.34002
4.6,81.3276,31.1366,30.9661,19.2249,-0.0458357,-0.107874,1.36651
4.7,82.9432,31.8711,31.6008,19.4714,-0.0202064,-0.0957821,1.3791
4.8,84.5042,32.5784,32.2394,19.6864,0.00613396,-0.104046,1.39116
4.9,86.0979,33.314,32.8888,19.895,0.0386132,-0.125238,1.37985
5.0,87.7115,34.074,33.5337,20.1038,0.0928735,-0.14696,1.38038
5.1,89.3037,34.8276,34.1792,20.2969,0.139002,-0.185833,1.39772
5.2,90.8683,35.5555,34.8384,20.4743,0.157458,-0.225338,1.4053
5.3,92.4163,36.2539,35.5126,20.6498,0.162676,-0.251928,1.39994
5.4,94.0063,36.9872,36.2079,20.8112,0.152612,-0.273628,1.401
5.5,95.5357,37.681,36.8761,20.9785,0.152555,-0.282315,1.40327
5.6,97.0523,38.3388,37.5663,21.1471,0.157309,-0.299167,1.41411
5.7,98.6385,38.9971,38.3244,21.317,0.179836,-0.362337,1.44333
5.8,100.169,39.6426,39.0845,21.4422,0.216358,-0.413398,1.48184
5.9,101.678,40.2404,39.8533,21.5843,0.257076,-0.454339,1.55372
6.0,103.234,40.8611,40.6302,21.7427,0.295591,-0.478414,1.60686
6.1,104.718,41.4319,41.3741,21.9124,0.360807,-0.526023,1.67608
6.2,106.287,42.042,42.1134,22.1317,0.419276,-0.573625,1.7818
6.3,107.924,42.7058,42.8729,22.3451,0.453483,-0.607371,1.86271
6.4,109.603,43.4238,43.6316,22.5479,0.423355,-0.624951,1.94128
6.5,111.175,44.1052,44.3469,22.7225,0.374752,-0.59703,1.96943
6.6,112.8,44.837,45.0648,22.8978,0.277003,-0.601169,2.01532
6.7,114.406,45.5246,45.7915,23.09,0.213234,-0.617766,2.06622
6.8,115.981,46.2136,46.4584,23.3086,0.133864,-0.62512,2.13884
6.9,117.482,46.8816,47.0904,23.5101,0.0329581,-0.640921,2.23742
7.0,118.945,47.5432,47.6579,23.7437,-0.0341306,-0.650217,2.36336
7.1,120.449,48.2191,48.2547,23.9755,-0.113601,-0.66625,2.44552
7.2,121.876,48.8438,48.8563,24.1763,-0.223262,-0.666093,2.55291
7.3,123.294,49.4899,49.4448,24.3592,-0.31528,-0.679532,2.67193
7.4,124.827,50.1714,50.0361,24.6199,-0.426989,-0.677909,2.80468
7.5,126.434,50.8869,50.6525,24.8944,-0.538748,-0.692177,2.91064
7.6,128.008,51.6504,51.228,25.13,-0.656032,-0.711363,3.02452
7.7,129.613,52.4359,51.8288,25.3485,-0.781014,-0.663385,3.13543
7.8,131.183,53.243,52.3787,25.5609,-0.893842,-0.603689,3.30732
7.9,132.756,54.018,52.9367,25.8015,-1.02062,-0.545743,3.51542
8.0,134.258,54.7233,53.5562,25.9786,-1.18934,-0.484781,3.7314
8.1,135.738,55.4486,54.1677,26.1222,-1.37883,-0.43574,3.95409
8.2,137.09,56.1965,54.6591,26.2349,-1.51963,-0.387881,4.18754
8.3,138.355,56.9602,55.0735,26.3217,-1.64175,-0.370548,4.34099
8.4,139.605,57.6752,55.5384,26.3916,-1.83654,-0.420183,4.44123
8.5,140.691,58.3269,55.8719,26.492,-2.04733,-0.536526,4.45823
8.6,141.776,59.0764,56.1543,26.5454,-2.29573,-0.646231,4.42374
8.7,143.057,59.9892,56.4779,26.5895,-2.47557,-0.670827,4.41437
8.8,144.423,60.7934,56.8618,26.7681,-2.62778,-0.734002,4.37051
8.9,145.872,61.7359,57.194,26.9417,-2.82779,-0.809118,4.35079
9.0,147.664,62.8016,57.7027,27.1593,-2.9645,-0.884373,4.38416
9.1,149.576,64.0236,58.2559,27.2964,-3.09132,-0.994857,4.41056
9.2,151.777,65.3678,58.8269,27.5827,-3.16168,-1.08853,4.50799
9.3,153.821,66.614,59.293,27.9141,-3.11606,-1.12709,4.57539
9.4,155.973,68.1001,59.8285,28.0442,-3.03099,-1.29509,4.67089
9.5,157.847,69.3988,60.3341,28.114,-2.88099,-1.32993,4.64427
9.6,160.079,70.6379,61.0894,28.3521,-2.95317,-1.22672,4.67911
9.7,162.205,71.4617,61.96,28.7837,-2.78552,-1.21787,4.89292
9.8,164.02,72.0641,62.8509,29.1046,-2.59134,-1.11028,5.15659
9.9,165.036,72.5931,63.1238,29.3186,-2.17818,-0.84741,5.06085
10.0,166.39,72.7108,64.0056,29.674,-1.95544,-0.429456,4.69857
