Time (ns),trace,xx,yy,zz,yx,zx,zy
0.0,0.0,0.0,0.0,0.0,0.0,0.0,0.0
0.1,2.08439,0.705523,0.699691,0.679178,-0.000157801,-0.00377637,0.00125444
0.2,4.08452,1.37997,1.37997,1.32457,-0.00188417,-0.00448432,0.00380451
0.3,6.05858,2.05943,2.0489,1.95025,-0.0010735,-0.00454304,0.00780737
0.4,7.99284,2.73318,2.69931,2.56034,-0.00205746,-0.00404559,0.00340685
0.5,9.9212,3.40729,3.33878,3.17513,-0.00617166,-0.0120961,-0.00806155
0.6,11.8472,4.08002,3.98537,3.78186,-0.0156806,-0.0227904,-0.0220113
0.7,13.7242,4.75078,4.61719,4.35621,-0.028747,-0.0212039,-0.0342253
0.8,15.62,5.41851,5.26515,4.93633,-0.0534328,-0.0134416,-0.0420345
0.9,17.5218,6.08213,5.92536,5.51429,-0.0780245,-0.00245774,-0.0503006
1.0,19.3824,6.72603,6.5751,6.08122,-0.105091,0.00228837,-0.0551893
1.1,21.2458,7.37871,7.21677,6.65037,-0.134777,0.00110123,-0.0544692
1.2,23.0982,8.02346,7.86423,7.2105,-0.168607,0.000891914,-0.0545615
1.3,24.9178,8.67083,8.49784,7.74917,-0.200927,-0.00430547,-0.0573859
1.4,26.765,9.33504,9.14684,8.28308,-0.222215,-0.00222832,-0.0686235
1.5,28.6052,10.0026,9.80437,8.79824,-0.248782,0.000384214,-0.07586
1.6,30.4571,10.6769,10.4649,9.31538,-0.280762,0.00514445,-0.0688261
1.7,32.2578,11.3177,11.1119,9.8282,-0.32096,0.0121414,-0.0646124
1.8,34.0562,11.9538,11.7658,10.3367,-0.358525,0.0271662,-0.0537649
1.9,35.8444,12.5774,12.4295,10.8375,-0.405815,0.0489481,-0.0471145
2.0,37.6086,13.204,13.0957,11.3089,-0.464884,0.0819177,-0.0416006
2.1,39.3472,13.8262,13.7672,11.7538,-0.527686,0.124979,-0.0340175
2.2,41.067,14.446,14.4538,12.1672,-0.58969,0.156997,-0.0192975
2.3,42.761,15.0455,15.1463,12.5691,-0.649639,0.189693,-0.00831276
2.4,44.4226,15.6339,15.81,12.9787,-0.698448,0.213147,0.00558498
2.5,46.079,16.2332,16.4815,13.3642,-0.736056,0.236874,0.00790561
2.6,47.7224,16.8403,17.1406,13.7415,-0.763747,0.25774,0.0207147
2.7,49.3549,17.4347,17.787,14.1331,-0.788429,0.272624,0.020062
2.8,50.9576,18.0229,18.4357,14.499,-0.810195,0.269432,0.0262357
2.9,52.5715,18.6198,19.0756,14.8761,-0.829826,0.262664,0.0217496
3.0,54.2058,19.2302,19.722,15.2535,-0.846053,0.243735,0.0157266
3.1,55.8097,19.8282,20.3772,15.6043,-0.854711,0.243467,0.0129963
3.2,57.3977,20.4209,21.017,15.9598,-0.865292,0.245065,0.00484695
3.3,59.0345,21.0124,21.6848,16.3372,-0.886516,0.266875,0.00658239
3.4,60.6716,21.6166,22.3675,16.6875,-0.907337,0.285792,0.0116802
3.5,62.2893,22.2042,23.0453,17.0398,-0.9288,0.303214,0.0308937
3.6,63.9263,22.8056,23.7307,17.39,-0.94756,0.33137,0.0587809
3.7,65.5772,23.3982,24.4154,17.7636,-0.987806,0.354885,0.0718939
3.8,67.1785,23.9661,25.0797,18.1327,-1.0061,0.38168,0.0842621
3.9,68.7967,24.5406,25.7483,18.5078,-1.02491,0.403841,0.078728
4.0,70.4398,25.1415,26.4216,18.8767,-1.021,0.420198,0.0644175
4.1,72.0961,25.7599,27.124,19.2122,-1.01167,0.448421,0.0538909
4.2,73.7404,26.3827,27.8011,19.5566,-0.993262,0.47374,0.0283166
4.3,75.4222,26.9985,28.5233,19.9004,-0.992933,0.498241,0.00294366
4.4,77.1244,27.6091,29.257,20.2582,-1.00305,0.531837,-0.0351399
4.5,78.7966,28.1977,29.9935,20.6054,-1.02658,0.565657,-0.101039
4.6,80.4591,28.7738,30.7424,20.9429,-1.04433,0.613895,-0.162704
4.7,82.1125,29.3487,31.4899,21.274,-1.04799,0.647199,-0.227709
4.8,83.7226,29.9132,32.2147,21.5946,-1.07161,0.679644,-0.288021
4.9,85.3195,30.4851,32.9511,21.8833,-1.1001,0.690678,-0.334479
5.0,86.9588,31.0916,33.6782,22.189,-1.11123,0.701139,-0.384398
5.1,88.5634,31.728,34.3856,22.4498,-1.11831,0.710122,-0.439847
5.2,90.1253,32.3425,35.0757,22.7071,-1.11199,0.716439,-0.498415
5.3,91.6656,32.9205,35.7838,22.9614,-1.09812,0.714395,-0.54783
5.4,93.208,33.5006,36.4872,23.2202,-1.06144,0.732105,-0.600007
5.5,94.775,34.074,37.1944,23.5067,-1.00359,0.745834,-0.658017
5.6,96.3537,34.6803,37.904,23.7694,-0.969423,0.758305,-0.704849
5.7,97.9216,35.2989,38.583,24.0396,-0.924664,0.752248,-0.756473
5.8,99.4309,35.9164,39.2365,24.2781,-0.859243,0.749536,-0.790916
5.9,100.922,36.5329,39.8723,24.5173,-0.811919,0.749671,-0.815078
6.0,102.407,37.1666,40.5043,24.7362,-0.773791,0.745325,-0.842076
6.1,103.875,37.7728,41.1616,24.9402,-0.734484,0.760864,-0.884988
6.2,105.36,38.3967,41.8248,25.1386,-0.685451,0.76564,-0.920766
6.3,106.857,39.0119,42.4887,25.3568,-0.675352,0.77232,-0.957106
6.4,108.247,39.5662,43.1318,25.549,-0.668864,0.75543,-0.976455
6.5,109.596,40.0732,43.7484,25.7741,-0.671593,0.731313,-1.01369
6.6,110.93,40.6117,44.3284,25.9903,-0.645811,0.689456,-1.02568
6.7,112.284,41.1479,44.8986,26.2373,-0.608912,0.657062,-1.04839
6.8,113.6,41.6566,45.4741,26.469,-0.565079,0.655106,-1.07912
6.9,114.826,42.1164,46.0017,26.7077,-0.488591,0.641952,-1.12275
7.0,116.062,42.5496,46.538,26.9742,-0.374275,0.609432,-1.18996
7.1,117.292,42.9669,47.0756,27.2499,-0.276602,0.560095,-1.25959
7.2,118.495,43.3696,47.6275,27.4982,-0.197081,0.507197,-1.36787
7.3,119.64,43.7651,48.1622,27.7123,-0.0867314,0.43153,-1.45731
7.4,120.798,44.1785,48.7302,27.8897,0.020498,0.399244,-1.56905
7.5,122.035,44.6503,49.3268,28.0579,0.101364,0.384608,-1.72889
7.6,123.352,45.2286,49.971,28.1522,0.162823,0.351482,-1.87138
7.7,124.668,45.8217,50.6344,28.2123,0.244537,0.337092,-2.03432
7.8,125.825,46.3309,51.1783,28.3158,0.269874,0.324736,-2.16164
7.9,127.028,46.8781,51.7125,28.4375,0.322444,0.317381,-2.2887
8.0,128.254,47.4732,52.2723,28.5086,0.37738,0.349219,-2.40258
8.1,129.493,48.0227,52.8699,28.6,0.405682,0.392539,-2.58456
8.2,130.897,48.6805,53.4372,28.7798,0.42375,0.371656,-2.77908
8.3,132.326,49.2852,54.0146,29.0265,0.454026,0.372697,-2.92314
8.4,133.784,49.9076,54.5389,29.3375,0.526577,0.315076,-3.02485
8.5,135.391,50.6195,55.1001,29.6716,0.633559,0.267776,-3.14829
8.6,136.886,51.3345,55.6018,29.9495,0.730119,0.235032,-3.29512
8.7,138.524,52.1205,56.1365,30.2671,0.847648,0.243762,-3.43252
8.8,140.064,52.8249,56.6337,30.6053,0.971564,0.333196,-3.51328
8.9,141.647,53.5399,57.1505,30.9566,1.13233,0.321388,-3.60105
9.0,143.096,54.209,57.5927,31.294,1.26899,0.349284,-3.75751
9.1,144.472,54.8223,58.1772,31.4723,1.34164,0.378787,-3.84622
9.2,146.195,55.6382,58.9048,31.652,1.44585,0.371382,-4.018
9.3,148.099,56.5149,59.671,31.9127,1.60289,0.358515,-4.19041
9.4,150.162,57.5228,60.4289,32.2104,1.86619,0.407446,-4.25021
9.5,152.628,58.8602,61.4873,32.2805,2.13464,0.563269,-4.20653
9.6,155.108,59.9289,62.7763,32.4033,2.56941,0.775675,-4.00217
9.7,157.039,60.6661,63.8676,32.5056,2.77047,0.847304,-3.57511
9.8,159.16,61.8028,65.1041,32.2536,2.78773,0.661896,-3.30295
9.9,160.602,62.4187,65.8534,32.3296,2.46936,0.52568,-3.26539
10.0,161.587,62.3548,66.4387,32.7929,2.28844,0.038118,-3.63351
