Time (ns),trace,xx,yy,zz,yx,zx,zy
0.0,0.0,0.0,0.0,0.0,0.0,0.0,0.0
0.1,2.10381,0.703418,0.723441,0.676953,0.00341129,0.00313459,-0.00943135
0.2,4.12105,1.39554,1.42185,1.30366,0.00887859,0.00328811,-0.019536
0.3,6.11325,2.08322,2.11634,1.91369,0.00645906,0.00292927,-0.0346992
0.4,8.10498,2.77967,2.80438,2.52092,0.00912164,0.00966143,-0.0610796
0.5,10.0916,3.47861,3.49396,3.11906,0.00231391,0.0209584,-0.0805508
0.6,12.0735,4.18483,4.18351,3.70512,-0.00249018,0.0254584,-0.0936932
0.7,14.0358,4.88494,4.87665,4.27424,-0.000414492,0.019242,-0.108321
0.8,15.9924,5.56498,5.57766,4.84978,-0.00526603,0.0200708,-0.122029
0.9,17.9384,6.25249,6.27609,5.40977,0.00172241,0.0229536,-0.13382
1.0,19.8604,6.94854,6.96684,5.94506,0.00756119,0.0123147,-0.148332
1.1,21.7819,7.65243,7.66229,6.46717,0.00925605,-0.00306153,-0.170304
1.2,23.7033,8.35193,8.36095,6.99047,0.00887403,-0.0144179,-0.192895
1.3,25.6224,9.05224,9.05336,7.51679,0.0106096,-0.0109586,-0.232412
1.4,27.5165,9.71828,9.76314,8.0351,0.0195059,-0.0022772,-0.281866
1.5,29.3961,10.3695,10.4682,8.55845,0.0360853,0.00882439,-0.335058
1.6,31.2501,11.012,11.1755,9.06262,0.0427944,0.0224259,-0.395102
1.7,33.1064,11.6414,11.9018,9.56318,0.0488545,0.0312144,-0.441495
1.8,34.9174,12.249,12.6025,10.0659,0.049357,0.0509424,-0.485098
1.9,36.6939,12.8464,13.29,10.5575,0.0543101,0.0637523,-0.528433
2.0,38.5122,13.4633,13.9802,11.0687,0.0608186,0.0638923,-0.580329
2.1,40.294,14.0577,14.6756,11.5607,0.0689794,0.0484165,-0.635019
2.2,42.0614,14.6282,15.4078,12.0254,0.0804529,0.0171377,-0.683277
2.3,43.8081,15.1806,16.1295,12.4981,0.0881841,-0.0123123,-0.735753
2.4,45.582,15.7591,16.8492,12.9737,0.0838347,-0.0407342,-0.7912
2.5,47.3645,16.3352,17.5815,13.4478,0.0853306,-0.0683121,-0.851451
2.6,49.1704,16.9117,18.3299,13.9288,0.0815368,-0.104804,-0.914793
2.7,51.0018,17.5105,19.0954,14.3959,0.0791398,-0.141821,-0.965542
2.8,52.7999,18.1147,19.8515,14.8336,0.0616347,-0.185769,-1.02339
2.9,54.5998,18.706,20.61,15.2838,0.0447928,-0.24422,-1.10696
3.0,56.3869,19.2742,21.3803,15.7324,0.0317169,-0.298163,-1.17485
3.1,58.1772,19.8497,22.15,16.1775,0.0248449,-0.329857,-1.24566
3.2,59.9792,20.4351,22.9284,16.6157,0.0155608,-0.359241,-1.32422
3.3,61.7623,21.0114,23.7192,17.0317,0.0147313,-0.388044,-1.40358
3.4,63.5155,21.5671,24.5238,17.4245,0.0129432,-0.424853,-1.49305
3.5,65.2598,22.1206,25.3207,17.8185,0.0227426,-0.465084,-1.5731
3.6,66.9967,22.6804,26.1208,18.1955,0.0257396,-0.506997,-1.65046
3.7,68.7055,23.2289,26.9107,18.5659,0.0332057,-0.541272,-1.7371
3.8,70.4188,23.7719,27.7206,18.9263,0.0360809,-0.574609,-1.82622
3.9,72.1538,24.3229,28.5283,19.3025,0.0324573,-0.600696,-1.92923
4.0,73.9141,24.894,29.3453,19.6748,0.0377292,-0.63388,-2.03944
4.1,75.6995,25.4753,30.2038,20.0204,0.0388526,-0.672754,-2.13473
4.2,77.4864,26.0781,31.0498,20.3584,0.0555645,-0.698184,-2.23873
4.3,79.2929,26.693,31.9034,20.6965,0.0641306,-0.721973,-2.33233
4.4,81.1099,27.3236,32.7597,21.0266,0.0690556,-0.740654,-2.40743
4.5,82.9841,27.9829,33.63,21.3712,0.0756647,-0.774768,-2.46288
4.6,84.8707,28.6197,34.5266,21.7245,0.0583803,-0.830598,-2.51198
4.7,86.7467,29.2668,35.4262,22.0537,0.0391616,-0.873812,-2.56111
4.8,88.5816,29.9091,36.3199,22.3526,0.0298104,-0.906747,-2.6079
4.9,90.4039,30.5249,37.201,22.6779,0.0216022,-0.919927,-2.66512
5.0,92.2558,31.1683,38.0541,23.0333,0.0154434,-0.931897,-2.73195
5.1,94.0449,31.7901,38.8965,23.3583,0.026573,-0.956324,-2.77831
5.2,95.8316,32.417,39.7212,23.6934,0.0507029,-0.952133,-2.82409
5.3,97.6152,33.0591,40.5207,24.0355,0.073814,-0.944238,-2.83691
5.4,99.4205,33.7292,41.3193,24.3721,0.108587,-0.937278,-2.85564
5.5,101.206,34.3908,42.0954,24.7196,0.158167,-0.932665,-2.85716
5.6,103.03,35.0582,42.8808,25.0911,0.231954,-0.918288,-2.86791
5.7,104.829,35.7317,43.6586,25.4387,0.339147,-0.923529,-2.90965
5.8,106.631,36.3931,44.4617,25.7759,0.4472,-0.897097,-2.97508
5.9,108.431,37.0819,45.2578,26.0917,0.518171,-0.861496,-3.05532
6.0,110.214,37.7509,46.0579,26.4056,0.590594,-0.814796,-3.15002
6.1,111.985,38.4063,46.8724,26.7065,0.633459,-0.773549,-3.25295
6.2,113.781,39.049,47.6981,27.034,0.666716,-0.739946,-3.36091
6.3,115.57,39.6759,48.5277,27.3665,0.688572,-0.717808,-3.46665
6.4,117.326,40.3184,49.3213,27.6861,0.71777,-0.709855,-3.59213
6.5,119.067,40.9306,50.1525,27.9841,0.736955,-0.695018,-3.70562
6.6,120.772,41.5311,50.9941,28.2468,0.732735,-0.697459,-3.82301
6.7,122.538,42.1329,51.8789,28.5267,0.751372,-0.690325,-3.92712
6.8,124.23,42.7505,52.7375,28.742,0.750755,-0.692155,-4.04673
6.9,125.939,43.3748,53.5975,28.9664,0.763658,-0.724216,-4.17002
7.0,127.523,43.9897,54.413,29.12,0.740697,-0.772438,-4.28537
7.1,129.149,44.6397,55.2428,29.2666,0.755114,-0.854982,-4.36581
7.2,130.729,45.2172,56.0799,29.4315,0.79205,-0.931698,-4.40201
7.3,132.306,45.8287,56.9035,29.5734,0.811999,-1.02214,-4.49253
7.4,133.823,46.4035,57.706,29.7139,0.842648,-1.08724,-4.57365
7.5,135.427,47.0023,58.5354,29.8897,0.835788,-1.17199,-4.62657
7.6,137.104,47.587,59.4445,30.073,0.85887,-1.24001,-4.6517
7.7,138.696,48.0883,60.371,30.2363,0.902349,-1.30017,-4.65112
7.8,140.102,48.4782,61.3015,30.3218,0.921514,-1.37137,-4.68021
7.9,141.475,48.86,62.1984,30.4168,0.894994,-1.43698,-4.70519
8.0,142.676,49.1846,62.9592,30.532,0.864782,-1.47302,-4.70526
8.1,143.693,49.5279,63.5898,30.575,0.838571,-1.46925,-4.70619
8.2,144.742,49.8649,64.2296,30.6474,0.838603,-1.51372,-4.69724
8.3,145.821,50.2659,64.872,30.6827,0.860357,-1.5418,-4.64633
8.4,146.803,50.6297,65.3537,30.8198,0.820587,-1.54918,-4.55346
8.5,147.799,50.9757,65.865,30.9587,0.754681,-1.56974,-4.36667
8.6,148.773,51.2678,66.3964,31.1092,0.694731,-1.59718,-4.18652
8.7,149.716,51.5417,66.977,31.1977,0.683487,-1.58587,-4.02362
8.8,150.929,51.9957,67.7269,31.2063,0.695175,-1.58393,-3.88042
8.9,152.266,52.5288,68.3837,31.353,0.685743,-1.62767,-3.83479
9.0,153.545,53.1088,68.9172,31.5195,0.622292,-1.63776,-3.74671
9.1,154.647,53.5457,69.4123,31.6894,0.52625,-1.57467,-3.70011
9.2,155.934,54.1193,70.0108,31.8039,0.458264,-1.49407,-3.50805
9.3,157.204,54.7689,70.5914,31.8439,0.272905,-1.26858,-3.33147
9.4,158.137,55.2838,70.9759,31.8773,0.0965534,-1.05261,-3.21682
9.5,159.49,56.0491,71.4975,31.9434,-0.012125,-0.964017,-3.07962
9.6,161.035,57.0057,72.0168,32.0122,-0.133884,-0.793529,-2.94373
9.7,162.483,58.3954,72.195,31.8922,-0.201937,-0.652625,-2.6901
9.8,163.737,59.4962,72.4863,31.7541,-0.0323748,-0.3257,-2.52348
9.9,165.121,60.7843,72.2316,32.1047,-0.0570639,-0.145181,-2.60292
10.0,165.824,61.5939,72.0716,32.1583,-0.517019,0.0983123,-2.64356
