Time (ns),trace,xx,yy,zz,yx,zx,zy
0.0,0.0,0.0,0.0,0.0,0.0,0.0,0.0
0.1,2.09731,0.706861,0.707037,0.683416,0.00771531,-0.00546489,-0.00800329
0.2,4.11954,1.40722,1.38258,1.32974,0.0141972,-0.00427904,-0.015023
0.3,6.10415,2.09663,2.06051,1.94701,0.0333382,0.00553909,-0.0224911
0.4,8.10042,2.80302,2.73501,2.56239,0.0620664,0.00849956,-0.0223754
0.5,10.0725,3.50673,3.40852,3.15727,0.0895175,0.00515546,-0.0179642
0.6,12.0336,4.20583,4.09224,3.73557,0.108149,0.006425,-0.0179226
0.7,13.9528,4.89042,4.76799,4.29439,0.12502,0.000641676,-0.0126612
0.8,15.8408,5.55674,5.42229,4.86173,0.14642,0.0103535,-0.0110276
0.9,17.7111,6.2162,6.07777,5.41715,0.161898,0.0256524,-0.0096496
1.0,19.5756,6.88014,6.72924,5.96618,0.174695,0.0417969,-0.0171533
1.1,21.4106,7.54637,7.37535,6.48885,0.192621,0.0542752,-0.0310608
1.2,23.2283,8.21441,8.01549,6.99836,0.216657,0.0621862,-0.0351888
1.3,25.0063,8.87262,8.64439,7.48933,0.247806,0.0679261,-0.0362087
1.4,26.7776,9.53295,9.26765,7.97699,0.274431,0.0787977,-0.0396604
1.5,28.5715,10.2,9.90017,8.47132,0.293747,0.0732477,-0.050435
1.6,30.3287,10.8413,10.5312,8.95633,0.313466,0.0671226,-0.0591576
1.7,32.0736,11.4696,11.1606,9.44344,0.311243,0.059574,-0.0575493
1.8,33.7951,12.099,11.7875,9.9086,0.315996,0.0425101,-0.068943
1.9,35.5097,12.7371,12.4084,10.3642,0.314576,0.0122162,-0.0829632
2.0,37.2431,13.3754,13.0329,10.8348,0.317,-0.011408,-0.0782707
2.1,38.9778,14.0319,13.6538,11.2921,0.334657,-0.0306073,-0.0831862
2.2,40.7178,14.6917,14.2734,11.7527,0.360239,-0.0589917,-0.0954285
2.3,42.4196,15.3308,14.896,12.1928,0.376238,-0.0843219,-0.105424
2.4,44.1497,15.9773,15.5282,12.6442,0.386112,-0.10647,-0.104506
2.5,45.8798,16.6277,16.1494,13.1027,0.379769,-0.129603,-0.10459
2.6,47.6125,17.2887,16.7783,13.5455,0.373073,-0.160853,-0.112628
2.7,49.3462,17.9597,17.4002,13.9863,0.368675,-0.193707,-0.118227
2.8,51.0661,18.6249,18.0215,14.4197,0.372271,-0.232317,-0.114112
2.9,52.782,19.2958,18.6323,14.8539,0.369568,-0.264603,-0.102848
3.0,54.4911,19.9626,19.2534,15.2752,0.376548,-0.276573,-0.099039
3.1,56.163,20.6232,19.8611,15.6787,0.376344,-0.290709,-0.0900705
3.2,57.8317,21.2939,20.4798,16.058,0.371009,-0.306698,-0.0823907
3.3,59.4831,21.9558,21.0946,16.4327,0.364171,-0.307295,-0.0793683
3.4,61.1168,22.6069,21.7179,16.792,0.339462,-0.300107,-0.0707167
3.5,62.7944,23.284,22.3415,17.1689,0.323773,-0.297084,-0.0473623
3.6,64.4798,23.9449,22.9702,17.5646,0.314564,-0.300259,-0.0247638
3.7,66.1475,24.5894,23.6043,17.9538,0.294132,-0.303776,-0.0164752
3.8,67.7849,25.222,24.2271,18.3359,0.262805,-0.315798,-0.0123486
3.9,69.3922,25.8696,24.8277,18.6949,0.241205,-0.337408,-0.0148376
4.0,70.9816,26.527,25.4252,19.0294,0.206203,-0.351636,-0.00927805
4.1,72.5489,27.1725,26.0024,19.374,0.184642,-0.387343,-0.00285876
4.2,74.0765,27.8158,26.5532,19.7075,0.158854,-0.444652,-0.00324763
4.3,75.6184,28.4733,27.1384,20.0067,0.152713,-0.49449,0.0092465
4.4,77.1812,29.1279,27.7535,20.2998,0.158231,-0.557679,0.00324526
4.5,78.7875,29.8067,28.3728,20.6079,0.152783,-0.610668,0.00153771
4.6,80.4,30.5118,28.98,20.9081,0.134689,-0.661277,-0.0168862
4.7,81.9454,31.1928,29.5603,21.1923,0.123301,-0.71002,-0.0347173
4.8,83.4567,31.8823,30.0982,21.4763,0.138624,-0.751745,-0.0423925
4.9,85.0204,32.5896,30.6412,21.7896,0.158995,-0.814654,-0.0600121
5.0,86.5984,33.2969,31.1727,22.1288,0.15564,-0.874768,-0.0935102
5.1,88.168,33.9848,31.7072,22.4761,0.1537,-0.957377,-0.115871
5.2,89.8209,34.6939,32.2716,22.8554,0.156113,-1.02157,-0.169616
5.3,91.517,35.4336,32.8533,23.23,0.146974,-1.08371,-0.22237
5.4,93.2068,36.1731,33.4387,23.595,0.127854,-1.13851,-0.266995
5.5,94.9254,36.8918,34.05,23.9836,0.110563,-1.19735,-0.345135
5.6,96.563,37.6063,34.6087,24.348,0.0898595,-1.27109,-0.416519
5.7,98.1899,38.3132,35.1677,24.709,0.0464627,-1.32026,-0.485753
5.8,99.823,39.0421,35.7652,25.0157,-0.0202642,-1.36698,-0.565262
5.9,101.494,39.8172,36.3475,25.3295,-0.0856424,-1.39465,-0.619443
6.0,103.17,40.5909,36.9447,25.6347,-0.139203,-1.4067,-0.652697
6.1,104.851,41.3669,37.5313,25.9532,-0.201127,-1.44629,-0.695633
6.2,106.57,42.1839,38.137,26.2488,-0.26808,-1.49303,-0.752182
6.3,108.286,42.9879,38.7678,26.53,-0.336162,-1.55139,-0.834528
6.4,109.982,43.7738,39.4108,26.7978,-0.390479,-1.62289,-0.931781
6.5,111.807,44.5782,40.1308,27.0982,-0.433303,-1.71907,-1.01149
6.6,113.706,45.4121,40.853,27.441,-0.476465,-1.83979,-1.0763
6.7,115.595,46.1928,41.6046,27.7974,-0.519713,-1.93337,-1.14713
6.8,117.421,46.9623,42.3233,28.1354,-0.55644,-2.04702,-1.19899
6.9,119.181,47.6861,43.0475,28.447,-0.573489,-2.16172,-1.21231
7.0,120.889,48.3994,43.7489,28.7404,-0.593498,-2.32097,-1.22431
7.1,122.697,49.1595,44.4824,29.0551,-0.622272,-2.47858,-1.23396
7.2,124.476,49.9201,45.2044,29.3511,-0.668254,-2.64546,-1.28792
7.3,126.276,50.7205,45.9281,29.627,-0.697431,-2.78867,-1.33555
7.4,127.953,51.484,46.5617,29.907,-0.663173,-2.9388,-1.3732
7.5,129.607,52.2223,47.167,30.2182,-0.641383,-3.03301,-1.43382
7.6,131.203,52.9435,47.7339,30.5256,-0.59595,-3.12931,-1.45702
7.7,132.754,53.6545,48.3035,30.7958,-0.575151,-3.21713,-1.48732
7.8,134.409,54.3321,48.9301,31.147,-0.594831,-3.33412,-1.55083
7.9,136.067,55.0092,49.5593,31.4981,-0.61551,-3.47225,-1.65511
8.0,137.756,55.6845,50.2568,31.8149,-0.640166,-3.62913,-1.78604
8.1,139.496,56.3231,51.0434,32.1292,-0.706959,-3.76777,-1.88346
8.2,141.251,57.0221,51.8151,32.4142,-0.819635,-3.88369,-1.99491
8.3,143.053,57.7761,52.6145,32.6628,-0.949107,-3.91831,-2.05795
8.4,144.891,58.465,53.4946,32.931,-0.983177,-3.89118,-2.12075
8.5,146.636,59.1393,54.371,33.1259,-1.02264,-3.90856,-2.18346
8.6,148.315,59.7896,55.1288,33.397,-0.928478,-3.94424,-2.1842
8.7,150.084,60.4387,56.0207,33.6245,-0.826638,-4.03676,-2.1789
8.8,151.978,61.1446,56.9118,33.9219,-0.860116,-3.98724,-2.1896
8.9,153.758,61.8247,57.8074,34.1258,-0.889699,-3.95092,-2.15552
9.0,155.517,62.4842,58.6947,34.3378,-0.938013,-3.95122,-2.06638
9.1,157.675,63.3626,59.6127,34.6996,-1.12522,-3.89789,-1.88577
9.2,159.86,64.131,60.7011,35.0283,-1.28704,-3.85583,-1.67126
9.3,161.854,64.7825,61.6967,35.3743,-1.3577,-3.86704,-1.55151
9.4,163.873,65.5142,62.8134,35.5453,-1.47305,-3.956,-1.35901
9.5,166.019,66.6571,63.7611,35.6007,-1.77622,-3.95583,-1.27481
9.6,168.034,67.6631,64.6794,35.6918,-2.0888,-4.03198,-1.14112
9.7,170.411,69.0308,65.6267,35.7538,-2.41522,-4.09288,-1.19753
9.8,171.604,70.2385,65.8749,35.491,-2.78795,-4.04416,-1.24486
9.9,172.891,71.7794,65.7331,35.3788,-3.26252,-3.79187,-1.26133
10.0,173.178,72.3088,65.4799,35.3897,-3.3903,-3.38283,-1.61007
