Time (ns),trace,xx,yy,zz,yx,zx,zy
0.1,2.0637,0.69301,0.696532,0.674157,-0.00473448,-0.00170509,0.00845685
0.2,4.08585,1.37872,1.3766,1.33052,-0.0109345,-0.000201937,0.00570807
0.3,6.10151,2.058,2.0627,1.98081,-0.0119769,0.00423038,0.00877763
0.4,8.1093,2.73861,2.74502,2.62567,-0.00716707,0.00853084,0.0180517
0.5,10.1022,3.42471,3.41689,3.26062,-0.0151577,0.00984174,0.0300911
0.6,12.0779,4.11825,4.09594,3.86375,-0.0261901,0.0147832,0.0454315
0.7,14.0388,4.82247,4.75631,4.45999,-0.0449711,0.0116526,0.0576306
0.8,15.9789,5.50757,5.41725,5.05405,-0.0624098,-0.00062991,0.0804609
0.9,17.9044,6.19225,6.08041,5.63174,-0.0797956,-0.0118076,0.10953
1.0,19.8046,6.86738,6.73973,6.19751,-0.103105,-0.0217804,0.138813
1.1,21.7037,7.53924,7.39836,6.76608,-0.132405,-0.0204181,0.174579
1.2,23.6089,8.22263,8.06961,7.31661,-0.173738,-0.0221389,0.20243
1.3,25.4986,8.90374,8.73939,7.85546,-0.214691,-0.0189503,0.223996
1.4,27.4127,9.58994,9.41887,8.40392,-0.253859,-0.0156144,0.242385
1.5,29.3078,10.2591,10.1031,8.94568,-0.282711,-0.0238827,0.268307
1.6,31.2059,10.9316,10.7839,9.49035,-0.335552,-0.0243881,0.297693
1.7,33.0821,11.6081,11.458,10.016,-0.387474,-0.0234885,0.313331
1.8,34.9737,12.2825,12.1402,10.5511,-0.438234,-0.0235005,0.329003
1.9,36.8086,12.9456,12.8077,11.0553,-0.494863,-0.0122116,0.329987
2.0,38.6196,13.6059,13.4621,11.5517,-0.547637,0.010642,0.336673
2.1,40.42,14.2586,14.1221,12.0393,-0.598606,0.0234795,0.345608
2.2,42.262,14.9368,14.8128,12.5123,-0.642336,0.0306542,0.337746
2.3,44.1137,15.6122,15.5111,12.9905,-0.691357,0.0452321,0.337071
2.4,45.9874,16.3141,16.2279,13.4455,-0.746756,0.0526884,0.329795
2.5,47.8458,17.0018,16.9515,13.8926,-0.798838,0.0565575,0.317577
2.6,49.708,17.6938,17.6715,14.3427,-0.855182,0.0663243,0.320503
2.7,51.547,18.3905,18.3878,14.7688,-0.918226,0.0780727,0.344615
2.8,53.3725,19.0878,19.1051,15.1797,-0.971976,0.0970328,0.390694
2.9,55.2085,19.7956,19.831,15.5819,-1.02258,0.104619,0.422406
3.0,57.0296,20.4918,20.5708,15.967,-1.07714,0.118938,0.459493
3.1,58.8316,21.1922,21.2943,16.3451,-1.12357,0.136166,0.501913
3.2,60.6368,21.8995,22.01,16.7273,-1.16924,0.149345,0.558613
3.3,62.4429,22.627,22.7142,17.1017,-1.2143,0.16942,0.625558
3.4,64.2229,23.362,23.3837,17.4772,-1.24442,0.175954,0.702633
3.5,66.0097,24.0909,24.047,17.8717,-1.26211,0.180112,0.78781
3.6,67.7559,24.8176,24.719,18.2193,-1.28348,0.17375,0.878307
3.7,69.4789,25.5373,25.3735,18.5681,-1.30867,0.179907,0.953988
3.8,71.2122,26.2568,26.0441,18.9112,-1.34762,0.1802,1.01618
3.9,72.9706,26.9971,26.7258,19.2477,-1.38928,0.181888,1.09573
4.0,74.7158,27.7163,27.4135,19.5859,-1.42318,0.177358,1.16272
4.1,76.4482,28.4196,28.0983,19.9303,-1.46407,0.166126,1.20999
4.2,78.1318,29.1043,28.7668,20.2606,-1.50875,0.163298,1.24933
4.3,79.8164,29.78,29.4243,20.6122,-1.55837,0.149384,1.27145
4.4,81.5345,30.47,30.0885,20.976,-1.61066,0.156182,1.28302
4.5,83.2844,31.1741,30.7599,21.3504,-1.66789,0.160512,1.29891
4.6,85.0209,31.907,31.3814,21.7324,-1.73941,0.183923,1.33322
4.7,86.7108,32.6323,31.9694,22.1091,-1.80317,0.212226,1.39067
4.8,88.3694,33.3198,32.5611,22.4885,-1.87693,0.262119,1.43792
4.9,90.0092,33.9853,33.1579,22.8661,-1.94569,0.320931,1.48438
5.0,91.6292,34.6619,33.7457,23.2215,-2.00373,0.399979,1.53127
5.1,93.2289,35.3318,34.3199,23.5772,-2.03755,0.49141,1.5795
5.2,94.8347,36.0073,34.925,23.9024,-2.08585,0.580099,1.62037
5.3,96.4326,36.709,35.5181,24.2055,-2.13232,0.675587,1.67699
5.4,98.0061,37.3954,36.1167,24.4941,-2.1674,0.744209,1.74878
5.5,99.5531,38.0928,36.6943,24.7659,-2.19653,0.832542,1.80209
5.6,101.089,38.8112,37.2524,25.0252,-2.20499,0.916726,1.83479
5.7,102.648,39.5385,37.8309,25.2784,-2.20099,1.00295,1.86655
5.8,104.209,40.2554,38.4357,25.5174,-2.23185,1.09647,1.89309
5.9,105.71,40.9633,38.9858,25.7608,-2.26642,1.19522,1.94736
6.0,107.141,41.6462,39.5156,25.9792,-2.3171,1.26113,1.98883
6.1,108.646,42.3784,40.07,26.1974,-2.3596,1.31369,1.99485
6.2,110.155,43.1273,40.632,26.3959,-2.38049,1.35941,1.98399
6.3,111.647,43.8836,41.2083,26.5554,-2.39536,1.41114,1.97747
6.4,113.036,44.5931,41.7554,26.6872,-2.3626,1.47467,1.96341
6.5,114.406,45.2627,42.305,26.838,-2.32782,1.53756,1.97536
6.6,115.797,45.9337,42.8803,26.9829,-2.30016,1.60318,1.96961
6.7,117.153,46.6251,43.406,27.1219,-2.26439,1.66743,1.95276
6.8,118.58,47.3481,43.9613,27.2704,-2.25493,1.73524,1.89956
6.9,120.014,48.092,44.5185,27.403,-2.24533,1.82588,1.82066
7.0,121.43,48.8473,45.0784,27.504,-2.24315,1.91224,1.73382
7.1,122.796,49.5399,45.5938,27.6622,-2.23409,1.9959,1.67433
7.2,124.14,50.2056,46.1355,27.7989,-2.25555,2.05437,1.60047
7.3,125.507,50.9346,46.6405,27.9317,-2.27992,2.08091,1.54085
7.4,126.828,51.6743,47.1474,28.006,-2.28854,2.10294,1.50725
7.5,128.097,52.2949,47.6583,28.1437,-2.36404,2.10759,1.44608
7.6,129.373,52.9056,48.1934,28.2737,-2.38681,2.10389,1.37742
7.7,130.682,53.5511,48.7758,28.3547,-2.40686,2.10354,1.30887
7.8,131.995,54.2086,49.3173,28.4691,-2.43101,2.13074,1.24333
7.9,133.286,54.8455,49.7619,28.6784,-2.37881,2.19854,1.14829
8.0,134.682,55.5282,50.2385,28.9158,-2.30531,2.25228,0.992309
8.1,135.986,56.1263,50.6967,29.1632,-2.25318,2.31095,0.856681
8.2,137.149,56.6423,51.0641,29.4429,-2.18301,2.33351,0.72693
8.3,138.349,57.2317,51.5169,29.6006,-2.09889,2.38714,0.56928
8.4,139.553,57.8219,52.0209,29.7104,-2.00513,2.42315,0.422861
8.5,140.719,58.3401,52.5093,29.8699,-1.89807,2.42422,0.257116
8.6,141.875,58.9256,52.9612,29.9884,-1.80677,2.40853,0.160935
8.7,143.125,59.5651,53.3949,30.1648,-1.76353,2.36206,0.0479132
8.8,144.492,60.2269,53.9485,30.3169,-1.76387,2.43234,-0.182024
8.9,145.703,60.8387,54.4828,30.3812,-1.73308,2.52336,-0.390249
9.0,147.216,61.5997,55.0718,30.5444,-1.60174,2.57413,-0.477246
9.1,148.722,62.3754,55.6844,30.6619,-1.43478,2.6222,-0.541094
9.2,149.941,62.7649,56.2351,30.9405,-1.25598,2.64455,-0.606807
9.3,151.546,63.4395,56.9017,31.2044,-1.05453,2.64946,-0.66823
9.4,153.078,64.0886,57.4019,31.5877,-0.824675,2.68291,-0.700926
9.5,154.766,64.7817,57.8641,32.1199,-0.64949,2.80114,-0.820476
9.6,156.051,65.6105,58.0142,32.4266,-0.652545,3.07907,-0.856494
9.7,156.613,66.0582,58.1119,32.443,-0.292214,3.32521,-0.954107
9.8,157.189,66.7212,58.3852,32.0828,0.112092,3.72066,-0.905402
9.9,159.04,68.1409,59.3088,31.5905,0.490784,4.06853,-1.06381
10.0,160.107,69.2344,59.839,31.0333,0.333204,4.16008,-0.546386
10.1,2.07985,0.704936,0.701811,0.673104,0.00270997,-0.00514822,0.00212783
10.2,4.07942,1.41438,1.37439,1.29065,0.01398,-0.00901325,0.0151472
10.3,6.03435,2.11945,2.03373,1.88117,0.0286099,-0.014986,0.0238804
10.4,7.95702,2.82522,2.68421,2.44759,0.0350385,-0.0307316,0.0241366
10.5,9.90135,3.55154,3.33963,3.01018,0.0414644,-0.0495452,0.0214872
10.6,11.8416,4.28436,3.99831,3.55891,0.0513428,-0.0700718,0.0229705
10.7,13.787,5.02356,4.66206,4.1014,0.075835,-0.100273,0.0249813
10.8,15.7267,5.77365,5.32086,4.63222,0.10626,-0.117702,0.0276433
10.9,17.6579,6.53044,5.97405,5.15338,0.141276,-0.124978,0.0423325
11.0,19.5869,7.31078,6.61506,5.66107,0.160537,-0.129289,0.0476918
11.1,21.4949,8.09459,7.24725,6.15301,0.186092,-0.135775,0.0534933
11.2,23.4258,8.89151,7.89045,6.64388,0.216851,-0.14028,0.0536915
11.3,25.3251,9.68563,8.52689,7.11256,0.2584,-0.148267,0.0461405
11.4,27.1892,10.4659,9.14927,7.574,0.308323,-0.152515,0.0352921
11.5,29.0691,11.2449,9.78302,8.04118,0.36553,-0.159594,0.029784
11.6,30.9542,12.0276,10.4323,8.49428,0.421337,-0.163781,0.0241472
11.7,32.8278,12.806,11.0867,8.93515,0.483439,-0.170524,0.0209519
11.8,34.6903,13.5912,11.7482,9.35094,0.542598,-0.179332,0.0119614
11.9,36.5617,14.3746,12.4278,9.75934,0.597238,-0.19011,-0.00233243
12.0,38.4695,15.1821,13.1059,10.1816,0.656388,-0.200078,-0.0182319
12.1,40.3791,15.9854,13.7943,10.5995,0.730086,-0.211787,-0.041038
12.2,42.2853,16.8059,14.4708,11.0086,0.807538,-0.235053,-0.0442551
12.3,44.2047,17.6308,15.155,11.4189,0.887785,-0.263085,-0.0474889
12.4,46.1057,18.4529,15.8339,11.8189,0.961692,-0.292598,-0.0529024
12.5,47.9843,19.2547,16.5147,12.2149,1.0303,-0.32561,-0.0719887
12.6,49.8342,20.0521,17.1861,12.5961,1.10493,-0.350683,-0.100258
12.7,51.6571,20.8459,17.8493,12.9619,1.1722,-0.382591,-0.134166
12.8,53.4555,21.6258,18.5116,13.3181,1.22904,-0.417814,-0.164086
12.9,55.2674,22.4191,19.1806,13.6677,1.29236,-0.458958,-0.201132
13.0,57.0534,23.2158,19.843,13.9945,1.35484,-0.510303,-0.239975
13.1,58.837,24.024,20.4933,14.3197,1.42564,-0.549464,-0.277963
13.2,60.6076,24.8277,21.1263,14.6536,1.4829,-0.579438,-0.303942
13.3,62.3684,25.6491,21.7381,14.9813,1.53461,-0.614046,-0.327047
13.4,64.1024,26.4392,22.3534,15.3098,1.57007,-0.64909,-0.339798
13.5,65.8208,27.2281,22.9705,15.6222,1.58486,-0.678135,-0.363445
13.6,67.5751,28.0422,23.6039,15.929,1.59112,-0.712061,-0.381835
13.7,69.3629,28.8784,24.2301,16.2544,1.61132,-0.749757,-0.401573
13.8,71.1357,29.7061,24.8361,16.5935,1.61798,-0.782945,-0.420779
13.9,72.9142,30.5492,25.4338,16.9312,1.62545,-0.837614,-0.430161
14.0,74.7539,31.4042,26.0635,17.2862,1.62138,-0.877374,-0.435076
14.1,76.6007,32.2742,26.7053,17.6212,1.65214,-0.897904,-0.442143
14.2,78.4324,33.1116,27.3543,17.9665,1.69014,-0.919336,-0.465678
14.3,80.2565,33.9333,28.0043,18.3188,1.73786,-0.944956,-0.503594
14.4,82.0829,34.7788,28.6442,18.6599,1.77903,-0.970608,-0.544249
14.5,83.9414,35.6479,29.2766,19.0169,1.82503,-1.00413,-0.551232
14.6,85.7723,36.5259,29.8919,19.3545,1.85855,-1.06013,-0.548729
14.7,87.6359,37.4355,30.523,19.6773,1.88252,-1.09424,-0.553603
14.8,89.4856,38.3168,31.1719,19.9969,1.88497,-1.12071,-0.574336
14.9,91.2729,39.1812,31.7906,20.3012,1.88527,-1.14204,-0.59778
15.0,93.0364,40.0287,32.3868,20.6209,1.87775,-1.1798,-0.597861
15.1,94.8503,40.9135,32.9736,20.9632,1.8938,-1.21514,-0.608137
15.2,96.5756,41.7674,33.5319,21.2763,1.91977,-1.25639,-0.612378
15.3,98.2776,42.6141,34.1013,21.5621,1.92251,-1.31354,-0.636353
15.4,99.9176,43.4536,34.611,21.8531,1.90777,-1.38581,-0.644854
15.5,101.484,44.301,35.0973,22.0859,1.88638,-1.43392,-0.648614
15.6,103.026,45.1027,35.6118,22.3115,1.8621,-1.47168,-0.667911
15.7,104.578,45.9217,36.1281,22.5285,1.83374,-1.51126,-0.706623
15.8,106.162,46.7438,36.6804,22.7373,1.79243,-1.52227,-0.741362
15.9,107.767,47.5443,37.272,22.9503,1.76917,-1.51786,-0.749112
16.0,109.367,48.3613,37.8596,23.1464,1.77747,-1.50121,-0.753434
16.1,110.945,49.1479,38.458,23.3395,1.78847,-1.47335,-0.76006
16.2,112.468,49.9105,39.0085,23.5489,1.7766,-1.4139,-0.777061
16.3,114.02,50.6866,39.5888,23.7445,1.78865,-1.33202,-0.813813
16.4,115.61,51.4954,40.1597,23.9547,1.79546,-1.25308,-0.857659
16.5,117.268,52.2993,40.795,24.1738,1.7948,-1.18115,-0.872114
16.6,118.927,53.149,41.4215,24.3564,1.76841,-1.15244,-0.854891
16.7,120.595,54.0104,42.0523,24.5326,1.70104,-1.10151,-0.849461
16.8,122.234,54.8222,42.6667,24.7451,1.66411,-1.05964,-0.835693
16.9,123.801,55.6184,43.263,24.9201,1.61963,-1.02784,-0.828619
17.0,125.34,56.398,43.8464,25.0951,1.56197,-0.973993,-0.809738
17.1,126.88,57.1716,44.4342,25.2738,1.4767,-0.896248,-0.794588
17.2,128.429,57.9561,45.0077,25.4651,1.37225,-0.818478,-0.785727
17.3,129.985,58.7721,45.5938,25.619,1.34886,-0.78362,-0.764029
17.4,131.634,59.5933,46.2198,25.8213,1.28194,-0.746914,-0.755557
17.5,133.265,60.448,46.8241,25.9929,1.2374,-0.69267,-0.723934
17.6,134.823,61.2999,47.4551,26.0678,1.19588,-0.655418,-0.620129
17.7,136.339,62.1437,48.0629,26.132,1.16496,-0.602837,-0.532615
17.8,137.954,63.049,48.7047,26.2007,1.1417,-0.573844,-0.45152
17.9,139.451,63.8483,49.327,26.2756,1.11462,-0.567379,-0.330469
18.0,140.91,64.6182,49.9192,26.3723,1.08816,-0.507496,-0.272351
18.1,142.367,65.3167,50.5316,26.5188,1.05589,-0.441929,-0.221658
18.2,143.705,65.9503,51.1171,26.6375,1.05583,-0.380626,-0.175407
18.3,145.037,66.616,51.7222,26.6989,1.03451,-0.280926,-0.148228
18.4,146.492,67.3585,52.3287,26.8047,1.02357,-0.224629,-0.163198
18.5,148.048,68.1414,53.0012,26.9058,0.998925,-0.242382,-0.127808
18.6,149.402,68.7959,53.6481,26.9582,0.934751,-0.175362,-0.125912
18.7,150.862,69.4926,54.3466,27.0223,0.889555,-0.0850838,-0.104083
18.8,152.166,70.3145,54.8463,27.0054,0.809403,-0.0297089,-0.0587815
18.9,153.366,70.9782,55.4382,26.9498,0.746613,-0.0523111,-0.0506498
19.0,154.591,71.7807,55.9473,26.8629,0.572608,-0.105176,0.00226886
19.1,156.067,72.6677,56.648,26.7518,0.507308,-0.122751,-0.0608019
19.2,157.748,73.5696,57.4551,26.7228,0.593422,-0.122381,-0.0830919
19.3,159.239,74.3984,58.1086,26.7323,0.785455,-0.0980388,-0.123762
19.4,160.42,74.9507,58.765,26.7043,0.899256,-0.130882,-0.106721
19.5,161.536,75.2816,59.5224,26.7322,1.00461,0.0393412,-0.0810761
19.6,162.481,75.6044,59.9355,26.9414,0.825079,0.388827,-0.0616772
19.7,163.221,75.8563,60.1866,27.1785,0.577703,0.675418,-0.103438
19.8,164.541,76.1336,60.8126,27.595,0.267167,0.80486,-0.0603309
19.9,165.948,76.3798,61.9324,27.6357,0.0686944,1.06444,-0.140677
20.0,168.748,77.6697,62.9098,28.169,0.285164,0.875866,-0.303513
20.1,2.09482,0.715122,0.703691,0.676004,-0.00361518,0.00196572,-0.00245319
20.2,4.13252,1.41336,1.40434,1.31481,-0.0080068,-0.00907108,-0.0113675
20.3,6.12653,2.09774,2.10894,1.91985,-0.0136762,-0.0233296,-0.0198054
20.4,8.10633,2.77203,2.81523,2.51907,-0.0194878,-0.0396115,-0.0300722
20.5,10.0716,3.44873,3.52205,3.10083,-0.0244879,-0.0615815,-0.0449977
20.6,12.0149,4.11414,4.22025,3.68048,-0.0348624,-0.0840685,-0.0582546
20.7,13.9548,4.77636,4.93295,4.24552,-0.0532822,-0.0957523,-0.0632306
20.8,15.8942,5.45005,5.64358,4.8006,-0.0572701,-0.111768,-0.0649265
20.9,17.8008,6.1308,6.33865,5.33131,-0.0613909,-0.118004,-0.0750078
21.0,19.6716,6.8022,7.01352,5.85592,-0.0684687,-0.117957,-0.0967393
21.1,21.4945,7.46547,7.66624,6.36277,-0.0712238,-0.118901,-0.122867
21.2,23.3137,8.14376,8.31435,6.85563,-0.0731221,-0.124618,-0.139149
21.3,25.1716,8.8397,8.97029,7.36167,-0.0739804,-0.126433,-0.161219
21.4,27.0284,9.54074,9.62898,7.8587,-0.0713515,-0.13533,-0.188537
21.5,28.9009,10.2583,10.2892,8.35334,-0.0646816,-0.137834,-0.214364
21.6,30.7532,10.9699,10.9488,8.83454,-0.0782534,-0.126117,-0.234191
21.7,32.6089,11.6804,11.6055,9.32293,-0.086828,-0.123878,-0.25671
21.8,34.4419,12.392,12.2614,9.7885,-0.091888,-0.118542,-0.267368
21.9,36.2208,13.0803,12.9154,10.2251,-0.0871827,-0.10879,-0.274991
22.0,38.0038,13.7598,13.5859,10.6581,-0.0859714,-0.102949,-0.279982
22.1,39.8008,14.4535,14.2544,11.0928,-0.0814003,-0.0827392,-0.276036
22.2,41.6149,15.1419,14.9415,11.5314,-0.0804194,-0.0785605,-0.282143
22.3,43.4336,15.8513,15.64,11.9423,-0.0807523,-0.0614733,-0.286013
22.4,45.252,16.5786,16.3259,12.3475,-0.0873481,-0.0546175,-0.285318
22.5,47.0342,17.3088,16.9907,12.7347,-0.0982553,-0.0439014,-0.280245
22.6,48.8232,18.0383,17.6653,13.1196,-0.116113,-0.0276247,-0.273806
22.7,50.6232,18.7836,18.3311,13.5085,-0.128347,-0.00962082,-0.273319
22.8,52.4278,19.5196,19.0005,13.9078,-0.131313,0.0171326,-0.27196
22.9,54.2082,20.2552,19.6696,14.2835,-0.142497,0.0226423,-0.279117
23.0,55.9594,20.9899,20.3347,14.6348,-0.169229,0.0297001,-0.272091
23.1,57.6965,21.7221,20.986,14.9884,-0.175058,0.0448487,-0.259792
23.2,59.4236,22.4482,21.6545,15.3208,-0.16646,0.0678947,-0.2503
23.3,61.0954,23.1587,22.3054,15.6313,-0.15734,0.090675,-0.249175
23.4,62.7544,23.8696,22.9475,15.9372,-0.1452,0.126027,-0.252868
23.5,64.4209,24.6036,23.5843,16.233,-0.158181,0.173028,-0.268669
23.6,66.0728,25.3502,24.1984,16.5243,-0.170789,0.230699,-0.286555
23.7,67.7136,26.0845,24.8155,16.8135,-0.177385,0.289465,-0.303026
23.8,69.3448,26.8097,25.4333,17.1018,-0.200353,0.3528,-0.306511
23.9,70.9201,27.5037,26.0474,17.369,-0.229914,0.409867,-0.314301
24.0,72.4772,28.179,26.6617,17.6365,-0.264696,0.4674,-0.320457
24.1,74.0376,28.8355,27.2889,17.9131,-0.31047,0.49918,-0.329984
24.2,75.6145,29.5046,27.9222,18.1877,-0.363386,0.54375,-0.355276
24.3,77.1884,30.1551,28.5475,18.4858,-0.413707,0.592952,-0.359952
24.4,78.755,30.8101,29.1656,18.7792,-0.479156,0.644537,-0.359339
24.5,80.3259,31.4588,29.7988,19.0683,-0.547945,0.688398,-0.360331
24.6,81.9091,32.1099,30.4448,19.3544,-0.611726,0.738069,-0.35841
24.7,83.4877,32.7411,31.1039,19.6428,-0.686074,0.786729,-0.339008
24.8,85.1003,33.3842,31.7794,19.9367,-0.765596,0.847371,-0.337557
24.9,86.7465,34.0574,32.4418,20.2474,-0.826853,0.903742,-0.327593
25.0,88.3952,34.7517,33.105,20.5385,-0.8949,0.954,-0.316142
25.1,90.0375,35.4404,33.774,20.8231,-0.977769,1.02551,-0.311094
25.2,91.6954,36.1473,34.4209,21.1272,-1.06391,1.10511,-0.312687
25.3,93.4017,36.9127,35.0926,21.3964,-1.15131,1.18825,-0.330485
25.4,95.0966,37.659,35.768,21.6696,-1.23947,1.2753,-0.330559
25.5,96.7932,38.3818,36.4661,21.9454,-1.33428,1.36302,-0.324905
25.6,98.4797,39.105,37.1422,22.2325,-1.40553,1.46614,-0.330616
25.7,100.207,39.8334,37.8395,22.534,-1.46928,1.57672,-0.347958
25.8,101.916,40.5997,38.5076,22.8087,-1.57836,1.69272,-0.342824
25.9,103.685,41.4145,39.1796,23.0913,-1.6892,1.81564,-0.351616
26.0,105.413,42.1752,39.8723,23.3653,-1.78305,1.95319,-0.370827
26.1,107.156,42.9346,40.5876,23.6342,-1.89638,2.06838,-0.409271
26.2,108.963,43.7652,41.2891,23.9087,-1.98048,2.17249,-0.460097
26.3,110.78,44.6104,41.9779,24.1921,-2.05559,2.26738,-0.486269
26.4,112.626,45.462,42.708,24.4565,-2.14518,2.34116,-0.528981
26.5,114.431,46.2856,43.4093,24.7357,-2.23769,2.41622,-0.583884
26.6,116.262,47.1244,44.1456,24.9923,-2.30935,2.49989,-0.662959
26.7,118.142,47.9918,44.8852,25.2654,-2.38663,2.56609,-0.758042
26.8,120.011,48.8636,45.6087,25.5385,-2.4608,2.65997,-0.881847
26.9,121.817,49.6675,46.3859,25.7641,-2.53262,2.72004,-0.982101
27.0,123.707,50.4642,47.2272,26.0151,-2.5559,2.77975,-1.07356
27.1,125.567,51.2909,48.0514,26.2249,-2.57603,2.85288,-1.19438
27.2,127.371,52.0774,48.8228,26.4707,-2.60322,2.94127,-1.32406
27.3,129.155,52.8445,49.6074,26.7032,-2.59677,3.01795,-1.48341
27.4,130.993,53.6412,50.3889,26.9629,-2.51398,3.07451,-1.59798
27.5,132.875,54.4886,51.127,27.2596,-2.3812,3.09658,-1.72583
27.6,134.74,55.3136,51.8947,27.5319,-2.20582,3.11389,-1.82072
27.7,136.513,56.0785,52.6632,27.7711,-2.05087,3.17679,-1.88613
27.8,138.361,56.902,53.5131,27.9454,-1.9199,3.23723,-1.96299
27.9,140.31,57.7731,54.3262,28.2108,-1.76174,3.31148,-2.05413
28.0,142.243,58.5479,55.2291,28.4655,-1.58219,3.3316,-2.11974
28.1,144.125,59.3008,56.0836,28.7407,-1.3929,3.34863,-2.17632
28.2,146.072,60.0442,56.9964,29.0316,-1.26472,3.39925,-2.22404
28.3,148.073,60.7584,58.0102,29.3047,-1.13357,3.44419,-2.30377
28.4,150.057,61.4021,58.9914,29.6634,-1.01319,3.52194,-2.29721
28.5,151.852,61.9722,59.8928,29.9869,-0.858451,3.65154,-2.25554
28.6,153.535,62.5457,60.6998,30.289,-0.668719,3.78281,-2.26063
28.7,155.476,63.3051,61.53,30.6407,-0.487862,3.96141,-2.2603
28.8,157.531,64.1682,62.3336,31.029,-0.229892,4.12493,-2.21523
28.9,159.476,65.0427,63.0894,31.3436,0.147649,4.24005,-2.14045
29.0,161.145,65.7454,63.7456,31.6542,0.506112,4.23532,-2.08588
29.1,162.66,66.4585,64.3776,31.8237,0.833055,4.10825,-1.93262
29.2,164.21,67.1995,65.0488,31.9621,1.10674,3.95271,-1.81597
29.3,165.92,68.0138,65.8143,32.0916,1.33404,3.70988,-1.75089
29.4,167.783,68.8613,66.6552,32.2668,1.55011,3.46328,-1.6838
29.5,169.568,69.7527,67.378,32.4375,1.7173,3.01904,-1.60829
29.6,171.21,70.6245,68.0582,32.5271,1.99872,2.5557,-1.55249
29.7,172.531,71.2395,68.7115,32.5801,1.95729,2.07831,-1.34154
29.8,174.378,71.789,69.6116,32.9777,1.61947,1.80051,-0.8154
29.9,176.414,72.2589,71.1208,33.0344,1.05004,1.56776,-0.484483
30.0,178.997,73.5685,71.9088,33.5195,-0.030804,1.06872,-0.171667
30.1,2.09591,0.713984,0.707458,0.674464,0.00346208,0.00434504,-0.00126604
30.2,4.12328,1.40874,1.40388,1.31066,0.0153214,0.0025914,-0.00265897
30.3,6.12056,2.08172,2.10495,1.93389,0.0343058,-0.00656728,-0.00642156
30.4,8.13278,2.77198,2.82488,2.53593,0.0566447,-0.0204555,-0.00227221
30.5,10.1268,3.47393,3.54062,3.11225,0.0773519,-0.0424086,-0.00380148
30.6,12.1133,4.1719,4.26399,3.67743,0.100596,-0.0565274,-0.00381797
30.7,14.0899,4.87079,4.99615,4.22294,0.122241,-0.0711656,0.00300711
30.8,16.037,5.57498,5.70631,4.7557,0.140976,-0.0870219,0.00479822
30.9,17.9932,6.28984,6.42219,5.28116,0.161494,-0.100364,0.00743805
31.0,19.9385,7.00864,7.14476,5.78511,0.18219,-0.118284,0.00927637
