Time (ns),trace,xx,yy,zz,yx,zx,zy
0.0,0.0,0.0,0.0,0.0,0.0,0.0,0.0
0.1,2.07605,0.697685,0.698241,0.680128,0.00569424,0.00242643,0.005747
0.2,4.07929,1.38441,1.37533,1.31954,0.0142332,-0.00509991,0.0167919
0.3,6.05103,2.05097,2.05028,1.94978,0.00999623,-0.0049641,0.032679
0.4,7.99987,2.71476,2.72403,2.56108,0.0054623,-0.0144537,0.0462722
0.5,9.91018,3.36188,3.38763,3.16067,0.00736179,-0.0281518,0.0645049
0.6,11.7948,4.00279,4.04731,3.74464,0.0048975,-0.0380603,0.0884855
0.7,13.663,4.62429,4.71807,4.32063,0.00620891,-0.0425318,0.122567
0.8,15.5293,5.2507,5.39303,4.88561,0.00464578,-0.05379,0.158691
0.9,17.3873,5.87065,6.06393,5.4527,0.00590175,-0.0632519,0.194737
1.0,19.249,6.48381,6.74295,6.02223,0.00574219,-0.0760681,0.23813
1.1,21.1037,7.09493,7.42212,6.58669,0.00740105,-0.0928541,0.279794
1.2,22.9519,7.71499,8.11004,7.12684,0.00716482,-0.111466,0.310915
1.3,24.8017,8.32447,8.80868,7.66857,0.00952681,-0.131342,0.34296
1.4,26.6301,8.92561,9.51699,8.18752,0.0193979,-0.148916,0.357183
1.5,28.4538,9.52233,10.2279,8.70354,0.031818,-0.165441,0.363932
1.6,30.3005,10.1298,10.9488,9.22191,0.0449143,-0.167141,0.372253
1.7,32.1385,10.7562,11.6603,9.72197,0.0548241,-0.169952,0.376873
1.8,34.0114,11.4006,12.3828,10.2281,0.0658787,-0.165632,0.384411
1.9,35.8517,12.0348,13.0878,10.7292,0.079778,-0.159429,0.394373
2.0,37.7022,12.6728,13.8135,11.2159,0.107462,-0.15369,0.41118
2.1,39.516,13.3113,14.515,11.6897,0.144614,-0.154953,0.422699
2.2,41.3311,13.9723,15.2055,12.1533,0.187894,-0.160261,0.431986
2.3,43.1579,14.6324,15.9071,12.6184,0.22424,-0.170281,0.439057
2.4,44.9744,15.2935,16.5994,13.0815,0.271962,-0.183423,0.438645
2.5,46.7526,15.922,17.296,13.5346,0.330094,-0.1972,0.43517
2.6,48.5213,16.5484,17.9881,13.9848,0.384231,-0.208941,0.43912
2.7,50.3071,17.2018,18.6812,14.4241,0.445111,-0.208193,0.454478
2.8,52.1025,17.8613,19.3839,14.8572,0.505194,-0.217875,0.467004
2.9,53.8899,18.5148,20.094,15.2811,0.567988,-0.232051,0.494372
3.0,55.6588,19.1747,20.8174,15.6668,0.641469,-0.240283,0.509764
3.1,57.4246,19.8523,21.5498,16.0225,0.705247,-0.228711,0.520258
3.2,59.1271,20.5151,22.2533,16.3586,0.76799,-0.215156,0.533343
3.3,60.829,21.1863,22.9573,16.6854,0.821446,-0.191167,0.528695
3.4,62.5087,21.8608,23.6504,16.9975,0.880035,-0.148727,0.528253
3.5,64.229,22.5429,24.3384,17.3477,0.956894,-0.0933733,0.54547
3.6,65.8814,23.1757,25.0232,17.6825,1.02206,-0.0414705,0.571714
3.7,67.5514,23.8265,25.7087,18.0163,1.07129,0.0123647,0.611793
3.8,69.2127,24.4961,26.38,18.3367,1.12741,0.0584227,0.640903
3.9,70.8865,25.1866,27.0381,18.6618,1.19281,0.113994,0.664497
4.0,72.5216,25.8643,27.6982,18.9591,1.22805,0.164135,0.698844
4.1,74.1555,26.5685,28.3375,19.2496,1.26729,0.211788,0.748547
4.2,75.7414,27.2667,28.9466,19.5281,1.33857,0.257198,0.790527
4.3,77.3085,27.968,29.5195,19.821,1.40698,0.295316,0.84523
4.4,78.8678,28.6577,30.0822,20.1279,1.4588,0.329062,0.892229
4.5,80.388,29.3471,30.6379,20.4031,1.48889,0.366888,0.947652
4.6,81.8524,29.9948,31.1735,20.6841,1.53346,0.412797,0.994011
4.7,83.3443,30.6601,31.6985,20.9857,1.59723,0.441421,1.04608
4.8,84.8277,31.3303,32.2182,21.2792,1.6496,0.47815,1.10169
4.9,86.2698,31.9746,32.7462,21.549,1.69594,0.522416,1.16501
5.0,87.7217,32.6179,33.2823,21.8215,1.74263,0.549148,1.2256
5.1,89.1534,33.264,33.809,22.0803,1.81066,0.580663,1.28045
5.2,90.5397,33.94,34.299,22.3007,1.89219,0.612849,1.31377
5.3,91.9105,34.6092,34.7974,22.5039,1.99425,0.663131,1.34617
5.4,93.2488,35.2765,35.2877,22.6846,2.12119,0.713003,1.35749
5.5,94.6278,35.9407,35.8059,22.8812,2.25073,0.745133,1.36687
5.6,96.0498,36.5947,36.3638,23.0913,2.34297,0.796389,1.40252
5.7,97.4718,37.2324,36.9626,23.2768,2.43912,0.836057,1.44397
5.8,98.8941,37.8661,37.5622,23.4659,2.56943,0.876516,1.44555
5.9,100.329,38.5231,38.1504,23.6552,2.71942,0.901232,1.46026
6.0,101.788,39.1659,38.7367,23.8849,2.89398,0.911732,1.46788
6.1,103.213,39.7955,39.3023,24.1154,3.07877,0.955896,1.50226
6.2,104.678,40.4637,39.8656,24.3485,3.25096,0.990094,1.53949
6.3,106.105,41.0821,40.4191,24.6043,3.4292,1.0188,1.58781
6.4,107.528,41.699,40.9811,24.8475,3.60278,1.05977,1.64442
6.5,109.043,42.3403,41.5912,25.1112,3.77757,1.09148,1.69611
6.6,110.528,42.9494,42.2049,25.3733,3.93396,1.11791,1.70213
6.7,111.921,43.5259,42.7524,25.6431,4.12809,1.15451,1.70935
6.8,113.356,44.1674,43.3137,25.8749,4.30337,1.20592,1.75842
6.9,114.849,44.8473,43.8819,26.1197,4.48237,1.29793,1.84314
7.0,116.311,45.5287,44.4157,26.3666,4.68023,1.38157,1.91391
7.1,117.76,46.1994,44.9151,26.6454,4.86566,1.45957,1.99768
7.2,119.122,46.8307,45.4297,26.8612,5.05476,1.53003,2.08589
7.3,120.417,47.4334,45.9295,27.0542,5.25452,1.59702,2.17024
7.4,121.734,48.0049,46.4668,27.2624,5.45886,1.66799,2.25342
7.5,123.031,48.5042,47.0708,27.4565,5.60029,1.74889,2.34274
7.6,124.497,49.1317,47.6792,27.6865,5.75189,1.81646,2.41993
7.7,126.012,49.833,48.3119,27.8675,5.98041,1.86377,2.50369
7.8,127.45,50.543,48.9112,27.9957,6.18644,1.89207,2.53893
7.9,128.848,51.2558,49.473,28.119,6.37872,1.89949,2.59876
8.0,130.287,51.9546,50.0923,28.2404,6.51534,1.89374,2.63381
8.1,131.821,52.6597,50.7478,28.4137,6.60799,1.89247,2.68988
8.2,133.288,53.3779,51.3612,28.5493,6.74176,1.89175,2.72293
8.3,134.598,54.0151,51.8641,28.7186,6.82742,1.82273,2.80836
8.4,135.983,54.6213,52.466,28.8962,6.88677,1.7569,2.82326
8.5,137.281,55.1847,53.021,29.0748,6.96916,1.74138,2.816
8.6,138.44,55.6848,53.5283,29.2272,7.09695,1.70434,2.77994
8.7,139.626,56.1741,53.9669,29.4848,7.34304,1.63576,2.72641
8.8,140.896,56.7358,54.4892,29.6714,7.59906,1.56985,2.70569
8.9,142.033,57.1789,54.9487,29.905,7.78859,1.5354,2.7132
9.0,143.315,57.6307,55.5098,30.1749,8.04972,1.48412,2.75896
9.1,144.533,57.9909,56.1329,30.4096,8.35114,1.44646,2.78962
9.2,145.827,58.402,56.7071,30.7178,8.57023,1.39874,2.76076
9.3,147.365,59.0324,57.4575,30.8751,8.73218,1.3128,2.74284
9.4,149.073,59.7622,58.2612,31.0497,8.8433,1.31666,2.69533
9.5,150.36,60.3324,59.1618,30.8654,8.96023,1.20504,2.64092
9.6,151.518,60.8367,60.0833,30.5984,9.33866,1.3663,2.67509
9.7,152.449,61.3168,60.9054,30.2264,9.73063,1.57703,2.87022
9.8,153.909,61.7447,62.1607,30.0035,10.3282,1.67104,2.72786
9.9,154.863,61.5922,63.258,30.0131,10.6669,2.16805,2.75045
10.0,156.506,61.4461,64.5245,30.535,10.3185,2.3925,2.43507
