Time (ns),trace,xx,yy,zz,yx,zx,zy
0.0,0.0,0.0,0.0,0.0,0.0,0.0,0.0
0.1,2.08123,0.705755,0.703343,0.672132,0.00519119,-0.00309266,-0.00576964
0.2,4.10747,1.40047,1.39222,1.31477,0.0172981,-0.00136131,-0.0196545
0.3,6.09089,2.07945,2.07461,1.93683,0.0235311,-0.00137104,-0.0328455
0.4,8.04612,2.75487,2.75646,2.53479,0.0396918,-0.0115327,-0.0455241
0.5,9.98882,3.43248,3.44402,3.11232,0.0532669,-0.0190652,-0.0582181
0.6,11.9181,4.10635,4.13316,3.67862,0.0580219,-0.0264011,-0.0678109
0.7,13.8372,4.78042,4.81182,4.24494,0.0631523,-0.0300483,-0.0724651
0.8,15.7769,5.4557,5.51652,4.80468,0.0618103,-0.0310328,-0.0728636
0.9,17.7006,6.13522,6.21647,5.34886,0.0636941,-0.029017,-0.0675804
1.0,19.6499,6.82054,6.92984,5.89948,0.0603582,-0.0402322,-0.056416
1.1,21.6009,7.51054,7.65807,6.4323,0.0640157,-0.0461073,-0.0438019
1.2,23.551,8.19958,8.39007,6.96131,0.0611769,-0.0528995,-0.0361081
1.3,25.4846,8.90473,9.11742,7.46241,0.0548104,-0.0579053,-0.0243913
1.4,27.4295,9.62608,9.85807,7.94537,0.049778,-0.0762409,-0.00407594
1.5,29.3831,10.3561,10.613,8.41401,0.0382661,-0.0843876,0.0186452
1.6,31.3308,11.087,11.3766,8.86724,0.0299923,-0.0867036,0.0387996
1.7,33.256,11.8123,12.125,9.31873,0.0152127,-0.081642,0.0583744
1.8,35.1835,12.5384,12.8741,9.77107,0.00346168,-0.0670436,0.075954
1.9,37.0872,13.2604,13.6179,10.209,-0.00229553,-0.0548006,0.0925846
2.0,38.9815,14.0065,14.353,10.6221,-0.00313057,-0.0401767,0.115003
2.1,40.8909,14.7568,15.0891,11.045,-0.0166742,-0.0353984,0.139885
2.2,42.8018,15.5184,15.8338,11.4496,-0.0362818,-0.0138511,0.1588
2.3,44.7332,16.2777,16.5767,11.8788,-0.0665759,0.0159947,0.176027
2.4,46.6488,17.0363,17.3168,12.2957,-0.0952102,0.0315309,0.181466
2.5,48.5501,17.7882,18.0677,12.6942,-0.14456,0.0540657,0.185154
2.6,50.4641,18.5459,18.8208,13.0973,-0.202197,0.0843072,0.195523
2.7,52.3526,19.2885,19.5815,13.4826,-0.269142,0.12318,0.19594
2.8,54.2301,20.0224,20.3333,13.8744,-0.3272,0.140995,0.198586
2.9,56.0856,20.7607,21.0782,14.2467,-0.378812,0.14565,0.203551
3.0,57.9387,21.5172,21.809,14.6124,-0.423925,0.146099,0.218409
3.1,59.7668,22.2667,22.5368,14.9634,-0.465116,0.131873,0.217495
3.2,61.6116,23.0255,23.2676,15.3185,-0.50755,0.0975722,0.230113
3.3,63.4484,23.7951,23.9965,15.6568,-0.542436,0.0630246,0.222455
3.4,65.2595,24.5494,24.7153,15.9948,-0.586408,0.037234,0.233021
3.5,67.0657,25.2976,25.413,16.3551,-0.626761,0.0291593,0.229254
3.6,68.869,26.0648,26.0915,16.7127,-0.654809,0.00638693,0.232456
3.7,70.6473,26.8266,26.7711,17.0496,-0.658554,-0.00797838,0.237993
3.8,72.4094,27.5935,27.4368,17.3792,-0.663703,-0.0197761,0.24861
3.9,74.1742,28.3605,28.1167,17.697,-0.664848,-0.0185586,0.25273
4.0,75.9697,29.1525,28.8096,18.0076,-0.668851,-0.0242183,0.237543
4.1,77.7775,29.9386,29.5154,18.3236,-0.667693,-0.0338675,0.205765
4.2,79.5442,30.703,30.2335,18.6077,-0.657717,-0.0533464,0.165272
4.3,81.3303,31.4986,30.948,18.8836,-0.646314,-0.0732124,0.131274
4.4,83.1104,32.2931,31.6526,19.1647,-0.6238,-0.0904353,0.0926112
4.5,84.9311,33.1059,32.3559,19.4693,-0.594783,-0.117799,0.0702309
4.6,86.7343,33.911,33.0313,19.7919,-0.564215,-0.158864,0.0467174
4.7,88.5162,34.7173,33.685,20.1138,-0.545937,-0.187037,0.015681
4.8,90.3359,35.5118,34.383,20.4411,-0.524575,-0.203254,-0.00904781
4.9,92.1797,36.3384,35.0569,20.7844,-0.524029,-0.231294,-0.0316943
5.0,93.9371,37.1514,35.6983,21.0874,-0.538159,-0.272207,-0.0626064
5.1,95.6632,37.9653,36.3432,21.3547,-0.570922,-0.328917,-0.0842972
5.2,97.303,38.7524,36.9393,21.6114,-0.598271,-0.394007,-0.0932661
5.3,98.9715,39.5193,37.5764,21.8758,-0.637443,-0.437196,-0.0946873
5.4,100.626,40.2817,38.2008,22.1433,-0.709124,-0.475065,-0.100983
5.5,102.307,41.0308,38.8632,22.4132,-0.803507,-0.516736,-0.125892
5.6,104.032,41.8026,39.5461,22.6832,-0.886887,-0.547078,-0.159212
5.7,105.721,42.5577,40.2273,22.9362,-0.938732,-0.570858,-0.184301
5.8,107.37,43.314,40.9021,23.1538,-1.01263,-0.597533,-0.200711
5.9,108.993,44.0778,41.563,23.3521,-1.09973,-0.638356,-0.225903
6.0,110.674,44.8762,42.2538,23.5442,-1.15653,-0.723889,-0.240819
6.1,112.262,45.6295,42.9048,23.7275,-1.21025,-0.793666,-0.24389
6.2,113.857,46.3761,43.5988,23.8818,-1.24595,-0.873193,-0.267455
6.3,115.471,47.1327,44.2946,24.0441,-1.28185,-0.95097,-0.293789
6.4,117.04,47.8839,44.9535,24.2026,-1.33264,-1.03364,-0.31822
6.5,118.683,48.6554,45.6073,24.4208,-1.40587,-1.09057,-0.348129
6.6,120.358,49.4852,46.2296,24.6435,-1.48623,-1.1283,-0.37578
6.7,122.021,50.3244,46.8579,24.8384,-1.57929,-1.19829,-0.398233
6.8,123.647,51.1582,47.4679,25.0206,-1.66954,-1.27452,-0.426265
6.9,125.247,52.0031,48.0578,25.1857,-1.78981,-1.3128,-0.452555
7.0,126.997,52.9352,48.7041,25.3577,-1.88505,-1.34601,-0.458786
7.1,128.742,53.8621,49.3808,25.4995,-1.97572,-1.38211,-0.478101
7.2,130.513,54.816,50.0332,25.6636,-2.05514,-1.43202,-0.524146
7.3,132.328,55.8556,50.6741,25.7981,-2.11138,-1.48399,-0.569173
7.4,134.119,56.8706,51.3155,25.9331,-2.20018,-1.53452,-0.647734
7.5,135.884,57.8292,51.9473,26.1074,-2.25959,-1.56107,-0.731792
7.6,137.616,58.8162,52.5182,26.282,-2.3014,-1.61395,-0.756591
7.7,139.364,59.8016,53.0794,26.4826,-2.37204,-1.72445,-0.781909
7.8,141.135,60.8157,53.6291,26.69,-2.42809,-1.8442,-0.816211
7.9,142.901,61.8209,54.13,26.95,-2.47576,-1.92494,-0.863747
8.0,144.534,62.8133,54.6011,27.1191,-2.5502,-2.02075,-0.92266
8.1,146.204,63.7986,55.1338,27.2715,-2.5325,-2.18767,-0.966307
8.2,147.758,64.7015,55.598,27.4585,-2.47319,-2.381,-1.07586
8.3,149.31,65.6565,56.0301,27.6233,-2.51275,-2.56584,-1.19424
8.4,150.927,66.6598,56.502,27.7652,-2.5624,-2.76445,-1.30592
8.5,152.567,67.6532,56.9335,27.9802,-2.60028,-2.94501,-1.39936
8.6,154.19,68.6534,57.4278,28.1089,-2.70029,-3.13531,-1.47977
8.7,155.753,69.6768,57.8128,28.2637,-2.69282,-3.22096,-1.55834
8.8,157.193,70.5885,58.119,28.4853,-2.66174,-3.2976,-1.61474
8.9,158.709,71.4474,58.5376,28.7237,-2.58013,-3.32139,-1.59351
9.0,160.32,72.3322,59.0639,28.9235,-2.56578,-3.22034,-1.62866
9.1,161.742,73.159,59.5039,29.0792,-2.61687,-3.09042,-1.75369
9.2,163.036,73.9189,59.835,29.2826,-2.60171,-3.13746,-1.91504
9.3,164.3,74.8629,60.0933,29.3438,-2.47676,-3.21582,-2.22976
9.4,165.389,75.5802,60.2831,29.5255,-2.37476,-3.18253,-2.50934
9.5,166.938,76.5202,60.4839,29.9336,-2.31919,-3.10757,-2.93936
9.6,168.24,77.4336,60.624,30.182,-2.23043,-3.09395,-3.4543
9.7,169.349,78.4177,60.6859,30.2458,-2.23773,-2.79548,-3.60882
9.8,170.322,79.2176,60.7698,30.3342,-2.58257,-2.24942,-3.97529
9.9,171.527,79.8916,60.9984,30.6371,-2.84144,-1.83582,-4.47039
10.0,173.38,80.7293,61.9221,30.7285,-2.45813,-2.26923,-5.07477
