Time (ns),trace,xx,yy,zz,yx,zx,zy
0.0,0.0,0.0,0.0,0.0,0.0,0.0,0.0
0.1,2.06381,0.701943,0.698615,0.663249,0.000335138,0.00370223,0.00533948
0.2,4.07641,1.40505,1.37566,1.2957,0.0123936,0.0135274,0.00478037
0.3,6.07191,2.10673,2.04435,1.92083,0.0293092,0.0228348,0.0101757
0.4,8.05561,2.79363,2.72589,2.53609,0.0451119,0.0298551,0.0254537
0.5,10.0179,3.47368,3.4027,3.14155,0.0636972,0.0325297,0.0493292
0.6,11.9746,4.15364,4.07786,3.7431,0.0836227,0.026257,0.0763912
0.7,13.9246,4.83201,4.76074,4.33186,0.110978,0.0156712,0.107708
0.8,15.894,5.5268,5.44576,4.92142,0.138669,-0.00260998,0.142316
0.9,17.8745,6.23757,6.13466,5.50229,0.171175,-0.0292368,0.165678
1.0,19.839,6.94648,6.82447,6.06807,0.199524,-0.0643362,0.184552
1.1,21.8256,7.66516,7.53232,6.62812,0.223919,-0.106402,0.19416
1.2,23.7959,8.37989,8.24219,7.17381,0.242875,-0.155728,0.207112
1.3,25.7499,9.08989,8.94213,7.71792,0.249706,-0.216119,0.227422
1.4,27.6992,9.79732,9.65349,8.24839,0.249181,-0.283142,0.249618
1.5,29.6389,10.5058,10.3548,8.77824,0.231087,-0.348537,0.274488
1.6,31.5983,11.225,11.07,9.30328,0.218414,-0.410813,0.293429
1.7,33.5405,11.9388,11.7839,9.81787,0.201909,-0.469034,0.311024
1.8,35.4906,12.6405,12.5077,10.3424,0.178984,-0.537689,0.33277
1.9,37.4091,13.3501,13.2232,10.8358,0.146752,-0.613808,0.354398
2.0,39.2958,14.0553,13.933,11.3075,0.101606,-0.693535,0.369806
2.1,41.1356,14.7364,14.6399,11.7593,0.0422349,-0.775409,0.382225
2.2,42.9858,15.4162,15.3606,12.209,-0.0277191,-0.861426,0.401964
2.3,44.7986,16.0604,16.0843,12.654,-0.0921619,-0.936221,0.418164
2.4,46.5978,16.7093,16.7999,13.0886,-0.149036,-1.01336,0.434035
2.5,48.3861,17.3573,17.5034,13.5254,-0.193032,-1.10227,0.451899
2.6,50.1732,18.0104,18.2092,13.9536,-0.234128,-1.19267,0.464016
2.7,51.9818,18.6901,18.9109,14.3809,-0.27993,-1.27812,0.473245
2.8,53.7832,19.3792,19.597,14.807,-0.30641,-1.34847,0.491942
2.9,55.5888,20.0757,20.2877,15.2254,-0.328174,-1.41711,0.511685
3.0,57.3537,20.7529,20.9728,15.628,-0.349799,-1.48748,0.534369
3.1,59.0953,21.4307,21.644,16.0206,-0.367048,-1.55897,0.561846
3.2,60.8135,22.1014,22.3225,16.3896,-0.386209,-1.62523,0.587849
3.3,62.5072,22.7612,22.9934,16.7526,-0.392058,-1.68669,0.613595
3.4,64.1842,23.4188,23.6744,17.091,-0.388552,-1.74639,0.633208
3.5,65.8719,24.0735,24.3626,17.4357,-0.381581,-1.7946,0.652988
3.6,67.552,24.7216,25.0616,17.7688,-0.372113,-1.84689,0.66079
3.7,69.2456,25.373,25.7849,18.0877,-0.35501,-1.89029,0.673786
3.8,70.959,26.0459,26.5038,18.4092,-0.333468,-1.94104,0.674883
3.9,72.6744,26.7259,27.2105,18.738,-0.316665,-1.98008,0.671252
4.0,74.3581,27.3755,27.9077,19.0748,-0.300692,-2.00304,0.656206
4.1,76.0717,28.0333,28.6206,19.4179,-0.278071,-2.01901,0.635315
4.2,77.8126,28.7037,29.3501,19.7587,-0.245147,-2.03779,0.609767
4.3,79.5367,29.3454,30.0767,20.1146,-0.18887,-2.05433,0.584735
4.4,81.248,29.9955,30.7897,20.4629,-0.138138,-2.03807,0.562531
4.5,82.9263,30.6363,31.4941,20.7959,-0.0707986,-2.00618,0.542142
4.6,84.5738,31.2608,32.201,21.112,-0.00674355,-1.96338,0.519255
4.7,86.2331,31.8696,32.9193,21.4441,0.056186,-1.91873,0.510187
4.8,87.8613,32.4823,33.6219,21.7571,0.109862,-1.89614,0.508651
4.9,89.5428,33.138,34.3459,22.059,0.143176,-1.87831,0.500244
5.0,91.1996,33.7768,35.0693,22.3536,0.173503,-1.85965,0.503371
5.1,92.832,34.4312,35.7745,22.6263,0.200906,-1.86535,0.513018
5.2,94.4001,35.0509,36.4779,22.8713,0.195019,-1.86259,0.514827
5.3,95.9557,35.6568,37.1868,23.1121,0.178318,-1.86262,0.521366
5.4,97.5078,36.2647,37.8793,23.3638,0.14992,-1.87624,0.528768
5.5,99.0973,36.8892,38.5982,23.6099,0.119807,-1.87784,0.537344
5.6,100.718,37.549,39.342,23.8267,0.093604,-1.88429,0.51711
5.7,102.359,38.2017,40.1176,24.0393,0.0833468,-1.88346,0.503185
5.8,103.921,38.8193,40.8337,24.2682,0.0780406,-1.87854,0.483368
5.9,105.551,39.4607,41.5697,24.5209,0.0347441,-1.89258,0.492878
6.0,107.112,40.1185,42.263,24.7301,-0.0107349,-1.9419,0.485677
6.1,108.627,40.7602,42.9307,24.9359,-0.0782447,-1.98836,0.449145
6.2,110.16,41.3919,43.6484,25.1202,-0.173081,-2.04097,0.413811
6.3,111.691,41.9972,44.394,25.3002,-0.27174,-2.0975,0.398392
6.4,113.29,42.6298,45.1921,25.4679,-0.354097,-2.15236,0.375739
6.5,114.905,43.2681,45.9899,25.6471,-0.415297,-2.17362,0.365669
6.6,116.465,43.9092,46.7895,25.7658,-0.476302,-2.18598,0.369434
6.7,118.075,44.5673,47.6295,25.8785,-0.526128,-2.18335,0.369391
6.8,119.629,45.1862,48.4466,25.9965,-0.524248,-2.19633,0.35455
6.9,121.143,45.7679,49.2374,26.1376,-0.485386,-2.1931,0.336943
7.0,122.708,46.3222,50.1089,26.2774,-0.413726,-2.16564,0.347842
7.1,124.269,46.8247,51.0224,26.4216,-0.328112,-2.1658,0.345953
7.2,125.965,47.4169,51.9638,26.5841,-0.22207,-2.14247,0.322339
7.3,127.599,48.0596,52.8066,26.7333,-0.146566,-2.14869,0.294338
7.4,129.237,48.7191,53.6124,26.9056,-0.0665753,-2.10945,0.271704
7.5,130.78,49.3378,54.3522,27.0904,0.032541,-2.06856,0.257762
7.6,132.283,49.9358,55.0774,27.2697,0.112786,-2.02777,0.261936
7.7,133.761,50.4889,55.8247,27.4475,0.253276,-1.98647,0.242153
7.8,135.362,51.0789,56.6902,27.5925,0.450208,-1.97849,0.185687
7.9,136.955,51.6446,57.5693,27.7414,0.572909,-1.98916,0.112265
8.0,138.542,52.2752,58.399,27.8675,0.735288,-2.00472,0.0713063
8.1,140.161,52.9068,59.2582,27.9965,0.864263,-2.01376,0.0814982
8.2,141.798,53.5722,60.1659,28.0595,1.06472,-1.98576,0.0514438
8.3,143.366,54.1356,61.0845,28.146,1.2531,-1.93552,0.0413467
8.4,145.05,54.7278,62.0882,28.2341,1.48589,-1.86929,0.0030563
8.5,146.472,55.1673,62.9331,28.3713,1.69853,-1.7214,-0.0637295
8.6,147.828,55.5329,63.7147,28.5808,1.93504,-1.6366,-0.0493395
8.7,149.321,55.9173,64.6096,28.7943,2.2206,-1.55882,-0.00979231
8.8,150.602,56.2881,65.308,29.0064,2.49566,-1.54292,0.0804683
8.9,151.815,56.6305,65.9855,29.1994,2.71008,-1.52247,0.143591
9.0,153.053,56.9966,66.7505,29.3063,2.96904,-1.46386,0.197048
9.1,154.229,57.3348,67.5399,29.3542,3.13408,-1.33196,0.287455
9.2,155.073,57.4196,68.2956,29.3574,3.39045,-1.17048,0.348312
9.3,156.122,57.5856,69.1356,29.4009,3.58993,-1.02326,0.43287
9.4,157.375,57.6916,70.0585,29.6253,3.9461,-0.762813,0.464306
9.5,158.276,57.849,70.5873,29.8394,4.18725,-0.634835,0.460083
9.6,159.444,58.2852,71.336,29.8227,4.33605,-0.671357,0.484006
9.7,160.38,58.5269,72.031,29.8225,4.38516,-0.704382,0.580132
9.8,161.838,59.037,72.8887,29.9127,4.19291,-0.713811,0.434347
9.9,163.659,59.6003,73.8255,30.2328,3.78903,-0.890179,0.0980161
10.0,164.63,60.5359,74.049,30.0448,3.41913,-1.34763,0.0373114
