Time (ns),trace,xx,yy,zz,yx,zx,zy
0.0,0.0,0.0,0.0,0.0,0.0,0.0,0.0
0.1,2.13264,0.721696,0.715148,0.695794,0.00626292,-0.0121836,0.00254093
0.2,4.2197,1.43645,1.42427,1.35897,0.00989052,-0.0372461,0.000100972
0.3,6.25845,2.1476,2.10545,2.00539,0.016286,-0.0584397,0.00386701
0.4,8.29376,2.85454,2.79634,2.64288,0.0218395,-0.0740908,0.00917941
0.5,10.3087,3.57849,3.47688,3.25328,0.015137,-0.100819,0.0103677
0.6,12.3208,4.30895,4.15544,3.85645,0.00426628,-0.126503,0.00828026
0.7,14.3319,5.04666,4.82218,4.46307,-0.000957682,-0.152662,0.00730333
0.8,16.3176,5.77711,5.48103,5.05941,0.00140496,-0.172213,0.0012555
0.9,18.3054,6.51516,6.1525,5.63774,0.0115084,-0.195214,0.00665414
1.0,20.2847,7.26461,6.81824,6.20189,0.0176287,-0.214684,-0.00774204
1.1,22.2701,8.02737,7.48459,6.75811,0.0246458,-0.242927,-0.0194417
1.2,24.2613,8.81016,8.1478,7.30333,0.0262176,-0.27084,-0.0279612
1.3,26.233,9.5942,8.81567,7.82311,0.00394421,-0.313375,-0.048854
1.4,28.184,10.3825,9.46382,8.33765,-0.0225326,-0.35011,-0.0701602
1.5,30.1465,11.2016,10.1191,8.82583,-0.0530011,-0.379253,-0.0835381
1.6,32.0941,12.0211,10.7685,9.30438,-0.101419,-0.39866,-0.0850097
1.7,34.0653,12.8542,11.44,9.77109,-0.152612,-0.402091,-0.071223
1.8,36.0535,13.688,12.1149,10.2505,-0.213136,-0.405391,-0.0387456
1.9,37.9912,14.519,12.7552,10.7171,-0.269973,-0.41218,-0.00324886
2.0,39.8975,15.3399,13.3896,11.168,-0.323028,-0.417441,0.0431988
2.1,41.8086,16.1747,14.0216,11.6123,-0.369111,-0.420363,0.0915713
2.2,43.7297,17.0363,14.6429,12.0505,-0.39663,-0.420761,0.138381
2.3,45.666,17.912,15.2498,12.5042,-0.427058,-0.424245,0.199738
2.4,47.5859,18.7743,15.8593,12.9523,-0.467475,-0.425534,0.2571
2.5,49.5044,19.6298,16.4811,13.3935,-0.51037,-0.424212,0.310396
2.6,51.3887,20.488,17.0861,13.8146,-0.551995,-0.425643,0.362682
2.7,53.2553,21.3674,17.6926,14.1952,-0.60041,-0.421263,0.420579
2.8,55.1246,22.2647,18.2876,14.5723,-0.640774,-0.407592,0.482009
2.9,56.9924,23.1559,18.8861,14.9504,-0.69675,-0.396211,0.551316
3.0,58.8549,24.064,19.49,15.3009,-0.763438,-0.384106,0.611279
3.1,60.7052,24.994,20.0844,15.6268,-0.819791,-0.362075,0.659485
3.2,62.5279,25.9298,20.6672,15.9309,-0.861574,-0.343378,0.71813
3.3,64.3742,26.8592,21.269,16.246,-0.900857,-0.305318,0.782109
3.4,66.2027,27.7723,21.8666,16.5638,-0.929205,-0.264981,0.840816
3.5,68.0212,28.6787,22.4501,16.8924,-0.974809,-0.221462,0.907389
3.6,69.8594,29.5871,23.0455,17.2267,-1.02108,-0.175307,0.982237
3.7,71.6783,30.4922,23.6434,17.5427,-1.07017,-0.131617,1.06039
3.8,73.5549,31.4283,24.2484,17.8781,-1.11549,-0.10024,1.13758
3.9,75.4209,32.3719,24.8335,18.2155,-1.17178,-0.064564,1.22133
4.0,77.2344,33.2848,25.3992,18.5504,-1.22983,-0.0411583,1.31943
4.1,79.0331,34.1845,25.9731,18.8755,-1.28267,-0.0198239,1.4171
4.2,80.8477,35.1056,26.5453,19.1967,-1.34402,-0.00343374,1.50007
4.3,82.6326,36.0141,27.1013,19.5172,-1.39162,0.0319924,1.57742
4.4,84.4134,36.9351,27.6574,19.8209,-1.43882,0.0677752,1.67234
4.5,86.2064,37.8805,28.2165,20.1093,-1.47874,0.123983,1.76394
4.6,87.9832,38.802,28.7631,20.4182,-1.51326,0.177779,1.86037
4.7,89.7557,39.7257,29.3029,20.7271,-1.55647,0.236752,1.94327
4.8,91.5036,40.6553,29.8252,21.0231,-1.62685,0.293058,2.02294
4.9,93.319,41.5902,30.3957,21.3331,-1.67881,0.341263,2.11051
5.0,95.073,42.5156,30.947,21.6104,-1.70315,0.382874,2.19488
5.1,96.8556,43.4536,31.4885,21.9135,-1.72133,0.416244,2.26371
5.2,98.6451,44.4,32.0294,22.2157,-1.7286,0.444415,2.33122
5.3,100.424,45.3245,32.5791,22.5202,-1.76757,0.464694,2.40103
5.4,102.251,46.2672,33.1619,22.8219,-1.82622,0.512663,2.47049
5.5,104.121,47.2384,33.7698,23.1128,-1.89513,0.537311,2.55748
5.6,105.995,48.1956,34.392,23.407,-1.98922,0.538445,2.63783
5.7,107.83,49.1324,35.0149,23.6829,-2.08806,0.553674,2.71445
5.8,109.728,50.1185,35.649,23.9605,-2.18153,0.576072,2.77406
5.9,111.654,51.126,36.2749,24.2528,-2.30052,0.614206,2.83027
6.0,113.519,52.1264,36.8694,24.5231,-2.40606,0.628481,2.89532
6.1,115.362,53.1087,37.4608,24.793,-2.51804,0.629892,2.96293
6.2,117.114,54.0811,37.9668,25.0663,-2.60117,0.641509,3.05696
6.3,118.819,55.0324,38.4547,25.3315,-2.69147,0.629729,3.12393
6.4,120.568,55.946,39.0039,25.6185,-2.83517,0.64553,3.13775
6.5,122.296,56.8938,39.5304,25.8722,-2.96396,0.657443,3.15743
6.6,124.05,57.851,40.0668,26.1327,-3.11253,0.656663,3.1664
6.7,125.819,58.8478,40.6085,26.3622,-3.2436,0.648578,3.15146
6.8,127.665,59.9122,41.1522,26.6002,-3.39476,0.621554,3.13089
6.9,129.447,60.9242,41.6618,26.8608,-3.56033,0.570062,3.10302
7.0,131.218,61.9687,42.1671,27.0824,-3.77082,0.480628,3.11646
7.1,133.054,63.0149,42.6692,27.3696,-3.9331,0.40502,3.13485
7.2,134.863,64.0025,43.1913,27.6696,-4.10195,0.343131,3.1684
7.3,136.667,65.0078,43.7052,27.9541,-4.24546,0.273454,3.19887
7.4,138.348,65.9814,44.1648,28.2017,-4.44153,0.181111,3.20735
7.5,140.14,66.9832,44.6297,28.5274,-4.61304,0.110894,3.2184
7.6,141.879,67.9208,45.1643,28.7936,-4.73666,0.0428987,3.25316
7.7,143.503,68.828,45.6778,28.997,-4.86424,-0.0074744,3.29264
7.8,145.004,69.6328,46.1804,29.1903,-4.97703,-0.0827096,3.3523
7.9,146.623,70.5018,46.7025,29.4188,-5.03276,-0.1949,3.38927
8.0,148.094,71.2593,47.2094,29.6251,-5.14206,-0.33396,3.41907
8.1,149.487,72.0051,47.7296,29.7522,-5.31456,-0.430955,3.44731
8.2,150.738,72.6035,48.2186,29.9154,-5.43065,-0.535037,3.46005
8.3,151.894,73.1915,48.6787,30.0241,-5.60929,-0.610957,3.44456
8.4,153.025,73.7784,49.1495,30.0975,-5.8278,-0.682677,3.41189
8.5,154.386,74.5953,49.6057,30.1855,-5.9769,-0.863504,3.37137
8.6,155.761,75.4354,50.09,30.2352,-6.09139,-1.06234,3.24358
8.7,157.171,76.2468,50.5926,30.3318,-6.15207,-1.27437,3.17678
8.8,158.493,76.9475,51.0118,30.5337,-6.28791,-1.46216,3.09387
8.9,159.765,77.6532,51.4804,30.6317,-6.47735,-1.5651,3.09381
9.0,161.156,78.3869,52.0298,30.7395,-6.56169,-1.70074,3.11426
9.1,162.245,79.0382,52.4517,30.7554,-6.55073,-1.87968,3.15506
9.2,163.252,79.5468,52.9945,30.7106,-6.64242,-2.00013,3.12503
9.3,164.187,80.0291,53.4528,30.7047,-6.71057,-2.10332,3.18387
9.4,164.91,80.4395,54.0636,30.4073,-6.8439,-2.26929,3.2471
9.5,165.875,81.0857,54.645,30.1439,-6.82555,-2.32778,3.23322
9.6,166.805,81.5951,55.2414,29.9686,-6.80029,-2.5312,3.09836
9.7,167.798,82.3032,55.5717,29.9232,-6.66758,-2.59183,3.06685
9.8,169.612,83.437,56.3996,29.7752,-6.67719,-2.48229,2.77034
9.9,171.818,84.5861,57.1832,30.0488,-6.61231,-2.26205,2.4161
10.0,175.159,86.2475,58.4528,30.4592,-6.51866,-2.30063,2.62558
