Time (ns),trace,xx,yy,zz,yx,zx,zy
0.0,0.0,0.0,0.0,0.0,0.0,0.0,0.0
0.1,2.10109,0.710067,0.710418,0.680606,0.0080691,-0.00584805,0.00133614
0.2,4.15939,1.41157,1.40695,1.34087,0.0171544,-0.0101635,0.0089114
0.3,6.15816,2.10433,2.08134,1.97249,0.0262805,-0.0320199,0.0141597
0.4,8.12677,2.79309,2.74842,2.58526,0.033159,-0.0549646,0.0384481
0.5,10.0912,3.48357,3.42482,3.18287,0.0309244,-0.0808419,0.0750354
0.6,12.0042,4.15692,4.10042,3.74686,0.0234873,-0.0992753,0.113651
0.7,13.909,4.83103,4.76758,4.31042,0.0107435,-0.124302,0.157255
0.8,15.7936,5.48793,5.43677,4.86893,-0.000216945,-0.147284,0.201198
0.9,17.647,6.14629,6.0962,5.40455,-0.00810332,-0.173184,0.23475
1.0,19.5287,6.82425,6.77441,5.93009,-0.0212241,-0.202591,0.265339
1.1,21.3995,7.49593,7.4452,6.45836,-0.0289886,-0.228487,0.293107
1.2,23.2565,8.14591,8.11263,6.99792,-0.0407781,-0.247977,0.320021
1.3,25.1024,8.79285,8.77998,7.52962,-0.0547385,-0.259119,0.338902
1.4,26.8992,9.42726,9.43794,8.03405,-0.0742396,-0.269886,0.350719
1.5,28.6804,10.0527,10.0942,8.53346,-0.0821749,-0.274634,0.370935
1.6,30.4597,10.6779,10.756,9.02583,-0.0903611,-0.279633,0.406895
1.7,32.2075,11.2905,11.41,9.50695,-0.115946,-0.291135,0.4365
1.8,33.9841,11.9128,12.0788,9.99247,-0.151572,-0.3046,0.475171
1.9,35.7853,12.5336,12.7719,10.4798,-0.182784,-0.336397,0.512123
2.0,37.5976,13.1627,13.4627,10.9722,-0.2064,-0.366843,0.541503
2.1,39.4098,13.7864,14.1455,11.478,-0.228896,-0.402207,0.566528
2.2,41.209,14.394,14.8331,11.982,-0.245978,-0.43104,0.605834
2.3,43.012,14.9855,15.5297,12.4968,-0.268251,-0.465033,0.634943
2.4,44.8166,15.5737,16.2261,13.0168,-0.295903,-0.485004,0.664419
2.5,46.5998,16.1595,16.9236,13.5167,-0.333929,-0.501856,0.687115
2.6,48.4143,16.7578,17.6407,14.0158,-0.375836,-0.520524,0.70838
2.7,50.1949,17.3494,18.3397,14.5059,-0.421055,-0.559184,0.742257
2.8,51.9323,17.9326,19.0395,14.9602,-0.476009,-0.601327,0.76921
2.9,53.6825,18.5383,19.7407,15.4036,-0.542176,-0.643251,0.79378
3.0,55.4292,19.1397,20.437,15.8526,-0.594448,-0.671053,0.798154
3.1,57.1652,19.7181,21.136,16.3111,-0.65026,-0.682709,0.809572
3.2,58.8618,20.3088,21.8034,16.7496,-0.703659,-0.703976,0.824849
3.3,60.5355,20.8872,22.4506,17.1978,-0.752959,-0.734803,0.834075
3.4,62.2174,21.478,23.1158,17.6235,-0.798783,-0.747858,0.837841
3.5,63.8346,22.0555,23.7461,18.033,-0.835202,-0.758901,0.849524
3.6,65.4212,22.6098,24.3619,18.4495,-0.894212,-0.768443,0.851494
3.7,66.9568,23.1654,24.9521,18.8393,-0.956095,-0.772697,0.840144
3.8,68.5069,23.7165,25.5599,19.2305,-1.01463,-0.781366,0.838221
3.9,70.0214,24.282,26.1403,19.599,-1.08687,-0.781223,0.856838
4.0,71.4796,24.8235,26.7072,19.9489,-1.15077,-0.773919,0.894338
4.1,72.885,25.3407,27.2573,20.287,-1.22959,-0.762287,0.921247
4.2,74.2986,25.8482,27.8116,20.6388,-1.31215,-0.756995,0.95414
4.3,75.6932,26.3414,28.3479,21.0038,-1.39103,-0.750732,0.989164
4.4,77.1221,26.8416,28.8969,21.3836,-1.48803,-0.731932,1.02767
4.5,78.587,27.35,29.4772,21.7598,-1.59333,-0.740053,1.05673
4.6,80.0825,27.8824,30.0611,22.139,-1.69668,-0.745177,1.06776
4.7,81.6433,28.4355,30.6663,22.5415,-1.76956,-0.742951,1.07166
4.8,83.1539,28.968,31.2831,22.9028,-1.86212,-0.744356,1.08906
4.9,84.6232,29.4784,31.8952,23.2496,-1.95701,-0.742186,1.09484
5.0,86.1562,30.0331,32.5133,23.6098,-2.0519,-0.768591,1.11414
5.1,87.673,30.5873,33.1313,23.9543,-2.1479,-0.772237,1.15118
5.2,89.2089,31.0979,33.8053,24.3058,-2.21571,-0.770419,1.16416
5.3,90.7178,31.5833,34.4992,24.6353,-2.28525,-0.759016,1.1903
5.4,92.2383,32.059,35.1999,24.9794,-2.36188,-0.75085,1.21669
5.5,93.7997,32.5451,35.9285,25.3261,-2.46249,-0.733874,1.25459
5.6,95.3683,33.0473,36.6665,25.6545,-2.55093,-0.734284,1.31898
5.7,96.9351,33.5447,37.4141,25.9762,-2.64029,-0.715889,1.37814
5.8,98.5032,34.0399,38.2092,26.2541,-2.71629,-0.717974,1.40483
5.9,100.093,34.5603,39.0082,26.5241,-2.80621,-0.754774,1.42972
6.0,101.635,35.0932,39.7698,26.7718,-2.91633,-0.814926,1.44204
6.1,103.206,35.6213,40.5391,27.0457,-3.04787,-0.841236,1.44512
6.2,104.743,36.1433,41.2839,27.3158,-3.17971,-0.864525,1.44029
6.3,106.34,36.7397,42.0304,27.5702,-3.28849,-0.894786,1.41893
6.4,107.941,37.3111,42.8313,27.7989,-3.39098,-0.915439,1.40729
6.5,109.513,37.8779,43.6254,28.0097,-3.49259,-0.908854,1.40601
6.6,111.073,38.4176,44.4779,28.1771,-3.55437,-0.89094,1.36492
6.7,112.608,38.9199,45.3535,28.3347,-3.59659,-0.88732,1.32946
6.8,114.205,39.4467,46.2667,28.4921,-3.66375,-0.901198,1.28959
6.9,115.805,39.9091,47.2343,28.6618,-3.74447,-0.89223,1.23275
7.0,117.384,40.3871,48.1789,28.8182,-3.80932,-0.89082,1.17257
7.1,118.882,40.8433,49.0563,28.9822,-3.84933,-0.879666,1.11749
7.2,120.319,41.2583,49.9786,29.0819,-3.87706,-0.867834,1.08264
7.3,121.69,41.6493,50.8511,29.1896,-3.92493,-0.878065,1.02722
7.4,123.127,42.0599,51.7131,29.3536,-3.91707,-0.893341,0.984742
7.5,124.631,42.4649,52.5845,29.5814,-3.91426,-0.895003,0.986225
7.6,126.141,42.8673,53.4926,29.7809,-3.98466,-0.952155,0.969487
7.7,127.68,43.2669,54.4274,29.9862,-4.11428,-0.97671,0.931549
7.8,129.218,43.715,55.3236,30.1792,-4.24526,-1.00928,0.942144
7.9,130.736,44.1504,56.2607,30.3245,-4.36125,-1.06493,0.907285
8.0,132.289,44.6324,57.2101,30.4462,-4.51306,-1.05198,0.894986
8.1,133.885,45.1681,58.167,30.5499,-4.60285,-1.05293,0.894361
8.2,135.5,45.7539,59.0604,30.6861,-4.74649,-1.06392,0.950781
8.3,137.014,46.2783,59.8407,30.8955,-4.87505,-1.12963,0.999839
8.4,138.554,46.879,60.6332,31.0419,-4.99786,-1.181,1.03899
8.5,140.216,47.4974,61.4886,31.2299,-5.0654,-1.22662,1.09783
8.6,142.006,48.2184,62.3937,31.3943,-5.10728,-1.30915,1.02454
8.7,143.743,48.9336,63.2886,31.5206,-5.09906,-1.42435,0.993624
8.8,145.249,49.6437,64.1314,31.474,-5.06848,-1.45851,0.868316
8.9,146.628,50.2932,64.8385,31.4965,-5.06507,-1.48629,0.829339
9.0,147.691,50.9052,65.4372,31.349,-5.00603,-1.53158,0.764081
9.1,148.797,51.5552,65.9884,31.253,-4.94688,-1.53843,0.646009
9.2,149.972,52.3848,66.4499,31.1377,-5.0042,-1.64311,0.476035
9.3,151.147,53.0704,66.8806,31.1959,-4.98105,-1.721,0.309607
9.4,152.408,53.7459,67.4087,31.253,-4.93859,-1.68588,0.168835
9.5,154.004,54.4581,68.0916,31.4543,-5.00719,-1.74816,0.16745
9.6,155.825,55.2521,68.9776,31.5948,-5.0715,-1.78524,0.236452
9.7,157.396,56.029,69.6567,31.7102,-5.41854,-1.49218,0.230186
9.8,158.942,56.8923,69.8988,32.1512,-5.62743,-1.43102,0.224961
9.9,160.821,57.487,70.2007,33.1334,-5.84194,-1.39893,-0.273966
10.0,162.817,58.0943,69.9856,34.7372,-6.06526,-1.36822,0.323364
