Time (ns),trace,xx,yy,zz,yx,zx,zy
0.0,0.0,0.0,0.0,0.0,0.0,0.0,0.0
0.1,2.09218,0.715529,0.699289,0.677361,0.0018838,-0.00664213,0.00553751
0.2,4.12512,1.42072,1.37642,1.32798,0.00851889,-0.00149909,0.00224506
0.3,6.09983,2.113,2.03281,1.95401,0.0258664,0.00725364,-0.00577338
0.4,8.03883,2.79546,2.68554,2.55783,0.0460687,0.0103648,-0.0120833
0.5,9.97548,3.48502,3.33066,3.15981,0.0736734,0.007862,-0.0132572
0.6,11.9111,4.18396,3.97952,3.74759,0.116317,0.010774,-0.0199894
0.7,13.8375,4.88622,4.6251,4.32614,0.150226,0.0199391,-0.0285656
0.8,15.7422,5.57604,5.2631,4.90306,0.191354,0.0146992,-0.0490614
0.9,17.6353,6.25006,5.90961,5.47562,0.232767,0.00127635,-0.0705085
1.0,19.522,6.91694,6.56095,6.04406,0.289297,-0.00769183,-0.0924517
1.1,21.4196,7.58386,7.2089,6.62684,0.342668,-0.00869328,-0.125798
1.2,23.3195,8.2532,7.85825,7.20804,0.394866,-0.0174563,-0.151114
1.3,25.2259,8.93219,8.51029,7.78345,0.457812,-0.0209148,-0.171579
1.4,27.0954,9.6116,9.15124,8.3326,0.530142,-0.026316,-0.185702
1.5,28.9487,10.2884,9.78185,8.87844,0.614268,-0.0364553,-0.197467
1.6,30.843,10.9825,10.4306,9.42996,0.694013,-0.0543151,-0.20714
1.7,32.724,11.6619,11.084,9.97813,0.794724,-0.068169,-0.223219
1.8,34.6046,12.332,11.7538,10.5187,0.902215,-0.0991411,-0.244437
1.9,36.4922,13.0183,12.4173,11.0567,1.00666,-0.125706,-0.265837
2.0,38.3699,13.6974,13.0796,11.5929,1.10344,-0.157427,-0.291398
2.1,40.2145,14.3822,13.726,12.1062,1.19856,-0.192132,-0.315998
2.2,42.0607,15.0881,14.3642,12.6084,1.29358,-0.231542,-0.342174
2.3,43.8645,15.7639,15.0013,13.0993,1.39018,-0.27148,-0.367616
2.4,45.6602,16.4333,15.646,13.5809,1.48281,-0.307686,-0.414534
2.5,47.4248,17.0987,16.2819,14.0442,1.59376,-0.342978,-0.456695
2.6,49.1646,17.7429,16.908,14.5137,1.71154,-0.403018,-0.504236
2.7,50.8846,18.3845,17.542,14.9581,1.81501,-0.465935,-0.561062
2.8,52.5495,19.0159,18.159,15.3746,1.91782,-0.529196,-0.604103
2.9,54.2226,19.6389,18.7959,15.7878,2.01941,-0.578809,-0.636207
3.0,55.9027,20.2616,19.424,16.2171,2.11363,-0.637061,-0.666288
3.1,57.6078,20.8879,20.081,16.6389,2.21342,-0.69726,-0.695661
3.2,59.2906,21.5021,20.7496,17.039,2.31109,-0.744401,-0.714607
3.3,60.9645,22.1135,21.4293,17.4217,2.41961,-0.784792,-0.724192
3.4,62.6408,22.7389,22.1161,17.7859,2.5179,-0.823951,-0.735467
3.5,64.2722,23.3751,22.79,18.107,2.61283,-0.865575,-0.735442
3.6,65.9001,24.009,23.4643,18.4269,2.71149,-0.905426,-0.73336
3.7,67.5296,24.6437,24.1549,18.731,2.79533,-0.947725,-0.717856
3.8,69.127,25.2526,24.8364,19.0379,2.87173,-0.997621,-0.700162
3.9,70.6953,25.8641,25.5096,19.3215,2.95512,-1.03753,-0.668354
4.0,72.2668,26.4855,26.1811,19.6003,3.04497,-1.06131,-0.638561
4.1,73.7985,27.0864,26.8306,19.8815,3.14591,-1.0737,-0.590433
4.2,75.2976,27.6645,27.4703,20.1627,3.24444,-1.08436,-0.542583
4.3,76.8081,28.2458,28.1046,20.4578,3.32183,-1.10183,-0.509928
4.4,78.3142,28.8374,28.7306,20.7463,3.40817,-1.12985,-0.47957
4.5,79.7708,29.4152,29.3309,21.0247,3.49284,-1.1521,-0.450739
4.6,81.19,29.9749,29.9275,21.2876,3.55707,-1.17725,-0.421414
4.7,82.5905,30.5193,30.5213,21.5499,3.62651,-1.17513,-0.382165
4.8,83.9741,31.0613,31.1064,21.8063,3.68169,-1.15003,-0.327768
4.9,85.3311,31.5842,31.6981,22.0488,3.71572,-1.13317,-0.28751
5.0,86.6808,32.0943,32.2973,22.2893,3.74993,-1.10737,-0.256326
5.1,88.0468,32.5919,32.9096,22.5453,3.77519,-1.08729,-0.223804
5.2,89.4357,33.1235,33.4959,22.8162,3.7972,-1.08262,-0.17167
5.3,90.8004,33.67,34.0698,23.0606,3.81766,-1.05367,-0.116428
5.4,92.1453,34.2195,34.6237,23.302,3.81421,-1.06136,-0.0651866
5.5,93.5029,34.7657,35.1594,23.5777,3.82529,-1.08487,-0.0174722
5.6,94.8149,35.3228,35.701,23.7911,3.82156,-1.13148,0.0327189
5.7,96.1765,35.9157,36.2592,24.0016,3.81599,-1.16812,0.066106
5.8,97.4956,36.5014,36.7882,24.206,3.81349,-1.21449,0.0919852
5.9,98.785,37.0313,37.3405,24.4132,3.81919,-1.26089,0.118849
6.0,100.143,37.6079,37.8914,24.6438,3.85089,-1.33504,0.13858
6.1,101.492,38.1704,38.4455,24.8762,3.87715,-1.40934,0.146559
6.2,102.83,38.7289,39.0027,25.0982,3.8757,-1.47058,0.138127
6.3,104.157,39.2623,39.565,25.3299,3.87792,-1.53368,0.112042
6.4,105.451,39.778,40.1334,25.5391,3.86511,-1.59805,0.114371
6.5,106.69,40.2249,40.6965,25.7682,3.83794,-1.68354,0.118214
6.6,107.889,40.6932,41.2326,25.9635,3.83065,-1.79392,0.0915244
6.7,109.077,41.2245,41.7484,26.1041,3.83501,-1.88702,0.0603824
6.8,110.292,41.7408,42.2832,26.2683,3.84678,-1.98987,0.0669192
6.9,111.602,42.3314,42.8524,26.4177,3.86407,-2.09942,0.0821699
7.0,112.844,42.897,43.3716,26.5754,3.8439,-2.24937,0.0753868
7.1,114.009,43.4562,43.8831,26.6698,3.78307,-2.40057,-0.0159843
7.2,115.155,44.0302,44.3763,26.7482,3.68103,-2.51292,-0.108313
7.3,116.354,44.618,44.891,26.8448,3.58863,-2.57852,-0.14507
7.4,117.558,45.1771,45.3983,26.9825,3.48582,-2.65769,-0.185538
7.5,118.768,45.7232,45.9186,27.126,3.34992,-2.70576,-0.211989
7.6,120.099,46.3109,46.4787,27.3089,3.24551,-2.74963,-0.232041
7.7,121.439,46.9147,47.0368,27.4876,3.12807,-2.78977,-0.25943
7.8,122.883,47.568,47.5912,27.7239,3.04509,-2.79374,-0.318156
7.9,124.314,48.2523,48.1091,27.9526,3.00493,-2.78675,-0.342712
8.0,125.762,48.905,48.6594,28.1972,2.986,-2.76975,-0.380903
8.1,127.044,49.5181,49.0828,28.4436,2.93518,-2.75301,-0.399111
8.2,128.436,50.1389,49.5639,28.7337,2.94285,-2.75814,-0.403511
8.3,129.667,50.7317,49.9541,28.9811,2.92835,-2.70201,-0.375226
8.4,130.933,51.3323,50.3649,29.2356,2.92386,-2.65847,-0.343438
8.5,132.082,51.8163,50.8109,29.4552,2.93438,-2.67585,-0.245233
8.6,133.165,52.3298,51.1792,29.656,2.84316,-2.61612,-0.161189
8.7,134.282,52.9103,51.5337,29.8382,2.76164,-2.50183,-0.148987
8.8,135.574,53.5679,51.9977,30.0084,2.65024,-2.33752,-0.0764655
8.9,136.91,54.1953,52.5158,30.1993,2.60957,-2.17278,-0.0482763
9.0,138.233,54.8162,53.0813,30.3354,2.69272,-2.06206,-0.105946
9.1,139.688,55.4783,53.6648,30.5445,2.85553,-1.90849,-0.125374
9.2,141.386,56.2184,54.335,30.8325,2.9885,-1.83758,-0.107066
9.3,143.139,57.1299,54.9962,31.0133,3.11009,-1.68938,-0.0766516
9.4,144.872,58.1436,55.5022,31.2258,3.2193,-1.49526,-0.00347207
9.5,146.212,58.9825,55.9494,31.2803,3.39558,-1.61247,0.0396307
9.6,147.483,59.5785,56.4398,31.4652,3.92179,-1.68499,0.0484191
9.7,148.423,59.8339,56.9436,31.6452,4.22919,-1.58727,0.184169
9.8,149.861,60.3459,57.5976,31.918,4.40639,-1.38635,0.214687
9.9,150.739,60.9411,57.6023,32.1951,4.85865,-0.952559,0.193273
10.0,152.665,62.1123,57.4471,33.1061,5.38639,-1.32092,0.414899
