Time (ns),trace,xx,yy,zz,yx,zx,zy
0.0,0.0,0.0,0.0,0.0,0.0,0.0,0.0
0.1,2.07934,0.707331,0.696757,0.675254,-0.00297139,0.00282409,0.00225391
0.2,4.10245,1.4008,1.38442,1.31722,0.00287495,0.01034,0.00283627
0.3,6.08861,2.08978,2.06683,1.932,0.00653258,0.0214751,0.0114782
0.4,8.07386,2.77813,2.7676,2.52814,0.0216922,0.0387697,0.0124737
0.5,10.056,3.47452,3.46328,3.11817,0.028059,0.0618007,0.0129886
0.6,12.024,4.1684,4.14827,3.70732,0.0308367,0.0823214,0.0146781
0.7,13.976,4.86355,4.83069,4.28171,0.0322561,0.100453,0.0220549
0.8,15.9282,5.54921,5.52571,4.85329,0.0336165,0.124519,0.0426201
0.9,17.8658,6.23522,6.20285,5.42776,0.0318359,0.142672,0.0623523
1.0,19.7701,6.90889,6.87049,5.99072,0.0228441,0.161048,0.0716667
1.1,21.6798,7.59076,7.54834,6.54066,0.0130224,0.169306,0.0796487
1.2,23.5981,8.27626,8.22966,7.09219,-0.00359604,0.166179,0.0779452
1.3,25.5013,8.96325,8.90694,7.63114,-0.0119285,0.171668,0.0762937
1.4,27.3934,9.65664,9.59208,8.14465,-0.00752315,0.185198,0.0786517
1.5,29.2852,10.3578,10.2783,8.64916,0.00482495,0.193507,0.0838222
1.6,31.1779,11.0661,10.9594,9.15245,0.00685943,0.196728,0.0846279
1.7,33.0393,11.7619,11.638,9.63946,0.0169288,0.202167,0.0754429
1.8,34.8557,12.4341,12.3107,10.1109,0.0268872,0.215616,0.0705962
1.9,36.6508,13.1182,12.9787,10.5539,0.0275009,0.223702,0.0693047
2.0,38.4571,13.7995,13.6467,11.0109,0.0236478,0.22084,0.0607901
2.1,40.2482,14.46,14.3203,11.4678,0.0243344,0.222631,0.0628947
2.2,42.0315,15.1338,15.0017,11.896,0.0269046,0.212186,0.0621462
2.3,43.8086,15.8099,15.6877,12.3109,0.0412909,0.193631,0.0628827
2.4,45.5653,16.4883,16.3723,12.7047,0.0568548,0.17466,0.0610429
2.5,47.2921,17.1797,17.0481,13.0643,0.0921378,0.152363,0.0537472
2.6,49.0267,17.8852,17.7119,13.4296,0.122826,0.135784,0.0399156
2.7,50.7428,18.5782,18.3744,13.7902,0.147923,0.125502,0.0203436
2.8,52.4688,19.2868,19.0458,14.1362,0.18732,0.117654,-0.0134956
2.9,54.1737,19.9688,19.7199,14.485,0.220726,0.127589,-0.0410646
3.0,55.8276,20.6215,20.3788,14.8274,0.256241,0.137386,-0.0773423
3.1,57.5022,21.2689,21.0512,15.1821,0.282058,0.161174,-0.12337
3.2,59.175,21.9092,21.7404,15.5253,0.307098,0.182189,-0.166412
3.3,60.8582,22.5557,22.4303,15.8722,0.335765,0.204191,-0.20237
3.4,62.5061,23.1837,23.118,16.2044,0.351222,0.226813,-0.245853
3.5,64.1267,23.8174,23.7842,16.5251,0.385446,0.230917,-0.292445
3.6,65.7499,24.4695,24.4476,16.8329,0.430852,0.225012,-0.359327
3.7,67.3889,25.1202,25.1426,17.1261,0.458487,0.214883,-0.429025
3.8,69.0301,25.7929,25.8328,17.4044,0.483286,0.204157,-0.49175
3.9,70.6662,26.4461,26.5392,17.6809,0.524417,0.199989,-0.563342
4.0,72.3021,27.0973,27.2694,17.9354,0.555594,0.183378,-0.632458
4.1,73.9346,27.737,28.0017,18.1959,0.587089,0.19111,-0.702816
4.2,75.5937,28.3866,28.7505,18.4565,0.627392,0.202614,-0.777801
4.3,77.2458,29.0202,29.4997,18.726,0.664953,0.233581,-0.853797
4.4,78.9024,29.6456,30.2456,19.0113,0.686825,0.240987,-0.925241
4.5,80.5546,30.2536,30.9914,19.3095,0.708442,0.258998,-0.979859
4.6,82.1827,30.8734,31.7007,19.6086,0.73124,0.278797,-1.04179
4.7,83.7935,31.5189,32.3963,19.8783,0.761947,0.30649,-1.11427
4.8,85.3658,32.1462,33.1158,20.1039,0.792404,0.307126,-1.18951
4.9,86.9315,32.7994,33.8098,20.3224,0.81946,0.310988,-1.24547
5.0,88.5211,33.4513,34.5048,20.5651,0.84833,0.292289,-1.30008
5.1,90.1154,34.0876,35.222,20.8058,0.861435,0.28051,-1.34854
5.2,91.6545,34.7193,35.9116,21.0236,0.894923,0.287473,-1.41109
5.3,93.2021,35.3521,36.6136,21.2364,0.956447,0.302926,-1.47597
5.4,94.7202,35.9918,37.2971,21.4313,1.03082,0.324065,-1.5412
5.5,96.2883,36.6311,37.9943,21.6629,1.09083,0.343507,-1.60269
5.6,97.8759,37.3055,38.679,21.8914,1.15438,0.356381,-1.66863
5.7,99.5028,38.018,39.3735,22.1113,1.21578,0.408088,-1.7348
5.8,101.138,38.7659,40.0294,22.3432,1.22176,0.438931,-1.80306
5.9,102.77,39.4983,40.7152,22.5564,1.23833,0.469682,-1.87562
6.0,104.409,40.2362,41.3856,22.7868,1.27108,0.521788,-1.94167
6.1,106.033,40.9668,42.0273,23.0385,1.30722,0.546904,-2.0076
6.2,107.685,41.6834,42.6565,23.3447,1.32406,0.547082,-2.06401
6.3,109.386,42.4462,43.2983,23.642,1.32462,0.529877,-2.12833
6.4,111.078,43.1944,43.967,23.9168,1.32649,0.544998,-2.18398
6.5,112.739,43.9578,44.6049,24.1764,1.32729,0.552249,-2.22516
6.6,114.377,44.7162,45.2505,24.41,1.33803,0.556489,-2.25966
6.7,116.056,45.5161,45.8936,24.6463,1.36013,0.550008,-2.28567
6.8,117.695,46.2971,46.5304,24.8672,1.37592,0.530758,-2.31945
6.9,119.338,47.1168,47.1648,25.0565,1.35838,0.521744,-2.35195
7.0,121.025,47.952,47.8419,25.2315,1.40053,0.48056,-2.41633
7.1,122.66,48.7701,48.496,25.3943,1.43003,0.466732,-2.44998
7.2,124.378,49.6236,49.1603,25.5944,1.45927,0.4523,-2.50965
7.3,126.06,50.4932,49.8192,25.748,1.43028,0.445725,-2.60126
7.4,127.738,51.3531,50.4947,25.8908,1.40982,0.45107,-2.69534
7.5,129.439,52.2319,51.1647,26.0424,1.3955,0.517429,-2.802
7.6,131.155,53.1396,51.8026,26.2132,1.34548,0.610432,-2.94645
7.7,132.804,54.0317,52.4293,26.343,1.22451,0.686491,-3.12553
7.8,134.398,54.9013,53.0159,26.4805,1.14186,0.764192,-3.31675
7.9,135.981,55.7844,53.5614,26.6347,1.08988,0.833141,-3.45945
8.0,137.588,56.5727,54.1971,26.8177,1.0436,0.887664,-3.60372
8.1,139.304,57.4,54.9073,26.9967,0.990155,0.93552,-3.72357
8.2,140.919,58.1069,55.6302,27.1816,0.960159,0.913064,-3.83857
8.3,142.609,58.9609,56.3375,27.3108,0.949851,0.962833,-3.9562
8.4,144.162,59.7777,57.0015,27.3831,0.931449,0.922737,-4.0606
8.5,145.661,60.5459,57.5977,27.5176,0.929536,0.870237,-4.16257
8.6,147.125,61.2529,58.2472,27.6244,0.88101,0.946298,-4.24979
8.7,148.458,61.7968,58.9391,27.7219,0.833844,1.00145,-4.36796
8.8,150.081,62.5495,59.7958,27.7358,0.801274,1.07774,-4.60322
8.9,151.707,63.2922,60.6095,27.8051,0.839519,1.1569,-4.77334
9.0,153.214,64.1231,61.2991,27.792,0.865718,1.26336,-5.00561
9.1,154.871,64.8632,62.1086,27.8987,0.929559,1.4562,-5.19149
9.2,156.726,65.8018,63.0001,27.9244,0.925276,1.57032,-5.26373
9.3,158.594,66.7058,63.777,28.111,0.937774,1.63162,-5.40263
9.4,160.32,67.6019,64.4474,28.2709,1.04499,1.68998,-5.62064
9.5,162.364,68.6261,65.1844,28.5537,1.11301,1.80632,-5.65142
9.6,164.222,69.4883,66.1146,28.6192,1.07034,1.78687,-5.51374
9.7,166.068,70.3143,67.1001,28.6533,0.994729,1.76429,-5.29569
9.8,169.098,71.0892,69.0726,28.9359,0.753445,1.96366,-5.00433
9.9,172.068,71.8479,70.7318,29.4887,0.638342,2.00798,-4.8802
10.0,176.319,74.733,71.6917,29.8942,0.519402,2.02823,-4.71347
