Time (ns),trace,xx,yy,zz,yx,zx,zy
0.0,0.0,0.0,0.0,0.0,0.0,0.0,0.0
0.1,2.10462,0.716663,0.707442,0.68052,0.00716267,-0.0113366,-0.00223248
0.2,4.15395,1.42858,1.39773,1.32764,0.0222993,-0.0199355,0.00217524
0.3,6.16995,2.13113,2.08608,1.95274,0.0357671,-0.0176285,-0.00021525
0.4,8.1576,2.83417,2.77489,2.54854,0.0431853,-0.0226745,0.00197708
0.5,10.123,3.53161,3.46221,3.12918,0.0524721,-0.0282999,-0.00820685
0.6,12.0674,4.23869,4.1366,3.69212,0.061382,-0.0314751,-0.0112826
0.7,14.0075,4.94724,4.80555,4.25473,0.0706469,-0.041487,-0.00549831
0.8,15.9751,5.6786,5.48561,4.81089,0.0816635,-0.054273,-0.00136581
0.9,17.9265,6.389,6.17668,5.36079,0.099109,-0.0609587,-0.00290909
1.0,19.8677,7.10582,6.86566,5.89619,0.116907,-0.0503473,-0.0108282
1.1,21.7765,7.82287,7.54232,6.41127,0.115349,-0.0252579,-0.0160653
1.2,23.686,8.52702,8.2223,6.93668,0.108375,0.00366019,-0.0179511
1.3,25.5723,9.22437,8.90069,7.44726,0.103946,0.0321375,-0.0265557
1.4,27.4407,9.93067,9.57195,7.93809,0.104786,0.0613459,-0.0405463
1.5,29.2818,10.6272,10.2298,8.42479,0.0974652,0.0955376,-0.0575838
1.6,31.1377,11.348,10.8926,8.89711,0.0989916,0.131032,-0.0805544
1.7,32.9887,12.0715,11.544,9.37321,0.104784,0.17062,-0.0935571
1.8,34.7935,12.7899,12.1789,9.82473,0.115862,0.21508,-0.104804
1.9,36.6275,13.5176,12.8268,10.2831,0.123509,0.254204,-0.125709
2.0,38.4501,14.2363,13.4805,10.7333,0.132489,0.28538,-0.143986
2.1,40.2709,14.9544,14.1427,11.1738,0.14384,0.315602,-0.174789
2.2,42.0759,15.6631,14.8048,11.608,0.150742,0.328387,-0.204856
2.3,43.8939,16.3765,15.4815,12.0359,0.163869,0.346712,-0.2311
2.4,45.7045,17.0796,16.1572,12.4677,0.165804,0.359711,-0.253611
2.5,47.5173,17.7884,16.8194,12.9095,0.169203,0.373266,-0.274211
2.6,49.3322,18.4991,17.483,13.35,0.183277,0.399142,-0.306635
2.7,51.141,19.1954,18.1662,13.7794,0.199272,0.421107,-0.353107
2.8,52.9599,19.9191,18.8433,14.1974,0.215652,0.433779,-0.388351
2.9,54.7598,20.6353,19.5329,14.5917,0.214663,0.433224,-0.416725
3.0,56.4884,21.3325,20.1875,14.9683,0.214661,0.446426,-0.435866
3.1,58.2033,22.0357,20.8462,15.3214,0.216275,0.446762,-0.457417
3.2,59.9089,22.7478,21.4828,15.6782,0.209134,0.445131,-0.486167
3.3,61.5495,23.4401,22.0719,16.0374,0.198259,0.460177,-0.521773
3.4,63.2178,24.1267,22.6995,16.3915,0.216686,0.4718,-0.559817
3.5,64.8731,24.8092,23.3269,16.7371,0.244932,0.489415,-0.586908
3.6,66.5142,25.5043,23.945,17.065,0.276079,0.499213,-0.600757
3.7,68.1013,26.1984,24.5306,17.3723,0.292627,0.505568,-0.632484
3.8,69.727,26.9344,25.1055,17.6871,0.309467,0.513018,-0.646401
3.9,71.3658,27.6819,25.6797,18.0041,0.317,0.52857,-0.637072
4.0,73.0234,28.439,26.2551,18.3292,0.321917,0.536651,-0.623838
4.1,74.6944,29.1968,26.8459,18.6518,0.325667,0.527547,-0.601074
4.2,76.3575,29.9251,27.4616,18.9708,0.339503,0.51398,-0.577852
4.3,78.0,30.6524,28.0668,19.2808,0.33458,0.510802,-0.555089
4.4,79.613,31.3646,28.6647,19.5836,0.352023,0.509647,-0.530314
4.5,81.2146,32.0704,29.2747,19.8695,0.372043,0.518394,-0.519197
4.6,82.7999,32.7689,29.881,20.15,0.407997,0.528843,-0.539573
4.7,84.3902,33.4874,30.4876,20.4152,0.446343,0.532269,-0.563789
4.8,86.0499,34.2171,31.1224,20.7104,0.498092,0.524695,-0.585138
4.9,87.6433,34.9574,31.6978,20.988,0.533385,0.537887,-0.6004
5.0,89.2666,35.6801,32.2858,21.3007,0.556165,0.557434,-0.612541
5.1,90.8271,36.3498,32.8602,21.6172,0.577962,0.58548,-0.59959
5.2,92.3744,37.0239,33.4447,21.9058,0.607219,0.606531,-0.602608
5.3,93.9213,37.6708,34.0745,22.1759,0.63543,0.639175,-0.613298
5.4,95.4974,38.3278,34.6997,22.4698,0.671461,0.672224,-0.621556
5.5,97.0428,39.0125,35.3168,22.7135,0.697944,0.69995,-0.625604
5.6,98.5848,39.702,35.9271,22.9557,0.752785,0.715687,-0.650077
5.7,100.15,40.3799,36.5612,23.2085,0.796463,0.756149,-0.684585
5.8,101.703,41.0729,37.1916,23.4389,0.823117,0.805069,-0.712504
5.9,103.269,41.7686,37.823,23.6775,0.843163,0.871217,-0.744309
6.0,104.879,42.4902,38.4808,23.9081,0.856722,0.966603,-0.789337
6.1,106.46,43.2001,39.1042,24.1556,0.8353,1.03856,-0.81669
6.2,108.045,43.9205,39.7143,24.4099,0.830069,1.12121,-0.837988
6.3,109.623,44.6304,40.3435,24.649,0.819373,1.22933,-0.847625
6.4,111.202,45.3624,40.9429,24.8969,0.766367,1.35785,-0.86363
6.5,112.851,46.1384,41.5484,25.1639,0.706621,1.47152,-0.885133
6.6,114.483,46.9464,42.1224,25.4142,0.609658,1.5462,-0.88947
6.7,116.173,47.7804,42.7118,25.6812,0.542536,1.60019,-0.900565
6.8,117.889,48.5882,43.356,25.9448,0.491968,1.67328,-0.947479
6.9,119.602,49.3868,44.009,26.2064,0.473391,1.7245,-1.03887
7.0,121.442,50.1989,44.7527,26.4907,0.485114,1.8421,-1.08318
7.1,123.214,51.0156,45.4436,26.7546,0.544863,1.96524,-1.16711
7.2,124.962,51.7839,46.115,27.0628,0.61396,2.09353,-1.25488
7.3,126.653,52.5442,46.7291,27.3802,0.69728,2.19321,-1.3592
7.4,128.361,53.3396,47.336,27.6852,0.776413,2.27345,-1.45659
7.5,130.057,54.172,47.9433,27.9415,0.858169,2.33629,-1.52123
7.6,131.799,55.0083,48.6104,28.1806,0.927149,2.37358,-1.60776
7.7,133.451,55.8497,49.2924,28.3087,0.922033,2.39724,-1.69028
7.8,135.216,56.7359,50.0154,28.4647,0.910708,2.38561,-1.80466
7.9,136.889,57.6414,50.6228,28.6247,0.940786,2.32074,-1.92568
8.0,138.68,58.6053,51.3473,28.7278,0.930596,2.25288,-2.08154
8.1,140.397,59.5223,52.0586,28.8165,0.946598,2.14271,-2.22548
8.2,142.094,60.369,52.7868,28.9386,0.966777,2.04774,-2.31666
8.3,143.705,61.19,53.4688,29.0457,0.940876,2.03347,-2.42587
8.4,145.316,61.9751,54.224,29.1166,0.91229,2.05016,-2.49471
8.5,146.995,62.8221,54.9523,29.221,0.87121,2.05234,-2.5508
8.6,148.537,63.5418,55.6342,29.3613,0.772357,2.08292,-2.65134
8.7,150.068,64.3258,56.3848,29.3578,0.680816,2.04796,-2.63181
8.8,151.664,65.1891,57.1478,29.3272,0.624294,2.08021,-2.60503
8.9,153.176,65.9637,57.9127,29.2999,0.580469,2.08369,-2.66764
9.0,155.004,66.9202,58.7848,29.2986,0.504123,2.09857,-2.70817
9.1,156.803,67.8189,59.6233,29.3604,0.478557,2.06865,-2.71035
9.2,158.617,68.4959,60.7025,29.4184,0.488331,2.07107,-2.67154
9.3,160.27,69.0591,61.5353,29.6761,0.344934,2.09745,-2.59666
9.4,161.397,69.3138,62.1853,29.8984,0.21103,2.10647,-2.51099
9.5,161.953,69.2006,62.7457,30.0065,0.151478,2.06028,-2.50519
9.6,162.24,69.0611,63.0192,30.1595,0.248986,1.87955,-2.39095
9.7,162.659,68.816,63.4911,30.3518,0.324379,1.85858,-2.18654
9.8,163.697,68.8917,64.1973,30.6076,0.473544,1.95817,-1.69913
9.9,164.486,68.913,64.5067,31.0667,0.847133,2.15433,-0.828114
10.0,166.376,70.0366,64.6424,31.6974,1.29587,2.36217,0.0563779
