Time (ns),trace,xx,yy,zz,yx,zx,zy
0.0,0.0,0.0,0.0,0.0,0.0,0.0,0.0
0.1,2.14223,0.718899,0.737633,0.685701,-0.00408955,-0.000101683,0.00879165
0.2,4.21215,1.41088,1.45661,1.34465,-0.00423079,0.00444861,0.0132459
0.3,6.25761,2.11706,2.15458,1.98597,0.000730107,0.0014703,0.0149297
0.4,8.27987,2.82106,2.84551,2.6133,0.00359462,0.00809603,0.0190722
0.5,10.2715,3.51445,3.53056,3.22645,0.00706979,0.0244264,0.0175964
0.6,12.2278,4.19726,4.20558,3.82498,0.00442028,0.0412933,0.0178642
0.7,14.1632,4.87396,4.88005,4.40919,0.00693048,0.0510309,0.02182
0.8,16.0623,5.53902,5.55652,4.96672,0.0143347,0.0737403,0.0098233
0.9,17.9638,6.20307,6.23789,5.52285,0.0161409,0.0970252,-0.00564363
1.0,19.8611,6.87961,6.90557,6.07594,0.0162741,0.117737,-0.0155386
1.1,21.7555,7.5727,7.56566,6.61718,0.0283852,0.142511,-0.0380542
1.2,23.6311,8.26069,8.22354,7.14692,0.0381978,0.152937,-0.0571642
1.3,25.5006,8.96821,8.86661,7.66579,0.0498133,0.171372,-0.0705612
1.4,27.3442,9.67437,9.49878,8.17106,0.0592851,0.192275,-0.0916581
1.5,29.1451,10.364,10.1292,8.65189,0.0700611,0.221985,-0.102526
1.6,30.9302,11.0411,10.7639,9.1252,0.0888368,0.24862,-0.117055
1.7,32.7073,11.7217,11.4067,9.57899,0.109468,0.270827,-0.122408
1.8,34.4836,12.4108,12.0473,10.0254,0.129275,0.282652,-0.11575
1.9,36.2276,13.113,12.6764,10.4383,0.15655,0.293839,-0.111687
2.0,37.9579,13.8161,13.2875,10.8543,0.193616,0.303629,-0.113598
2.1,39.6629,14.5146,13.8806,11.2677,0.224148,0.309013,-0.110844
2.2,41.3255,15.2055,14.4571,11.663,0.250671,0.308707,-0.0999193
2.3,43.0335,15.9339,15.0418,12.0578,0.275639,0.312538,-0.099664
2.4,44.7665,16.6597,15.6441,12.4627,0.313469,0.315192,-0.0929854
2.5,46.4821,17.3724,16.2628,12.8469,0.352075,0.310923,-0.0681559
2.6,48.2271,18.1005,16.885,13.2416,0.39425,0.29989,-0.0614969
2.7,49.9223,18.8386,17.4656,13.6182,0.442995,0.282202,-0.0549374
2.8,51.6095,19.5666,18.0397,14.0031,0.486747,0.267899,-0.0483384
2.9,53.2994,20.3007,18.6099,14.3889,0.539801,0.255425,-0.0506472
3.0,54.9877,21.0368,19.1799,14.771,0.595021,0.256433,-0.0587668
3.1,56.6256,21.7636,19.7157,15.1463,0.653522,0.256655,-0.0708596
3.2,58.2662,22.5046,20.2514,15.5102,0.737942,0.255885,-0.0854415
3.3,59.8943,23.2457,20.7753,15.8732,0.829242,0.24939,-0.0959193
3.4,61.5197,23.9922,21.2998,16.2276,0.924214,0.237548,-0.0905615
3.5,63.1063,24.7319,21.8085,16.566,1.02538,0.229718,-0.0626435
3.6,64.6527,25.4656,22.3093,16.8778,1.12246,0.227999,-0.0409615
3.7,66.1671,26.1786,22.8105,17.178,1.21845,0.238796,-0.0280291
3.8,67.6728,26.8924,23.3032,17.4771,1.32591,0.254694,-0.00373448
3.9,69.1411,27.6021,23.7845,17.7545,1.44619,0.275216,0.023167
4.0,70.6291,28.3147,24.2601,18.0543,1.56928,0.301576,0.0517251
4.1,72.1393,29.042,24.7439,18.3535,1.69417,0.335578,0.0851871
4.2,73.6566,29.8055,25.2028,18.6483,1.82406,0.370578,0.115287
4.3,75.1717,30.5714,25.6594,18.9409,1.95622,0.41881,0.144409
4.4,76.7193,31.3299,26.1501,19.2394,2.09609,0.465231,0.149786
4.5,78.2786,32.1003,26.6531,19.5252,2.24773,0.540086,0.148305
4.6,79.9175,32.9123,27.1606,19.8446,2.38481,0.613378,0.166144
4.7,81.5646,33.7285,27.6636,20.1726,2.53245,0.668979,0.186681
4.8,83.1829,34.5338,28.1583,20.4908,2.67096,0.722737,0.213612
4.9,84.7889,35.3277,28.6494,20.8118,2.80676,0.771495,0.237809
5.0,86.3624,36.1072,29.1497,21.1055,2.94074,0.805245,0.259692
5.1,87.8962,36.8681,29.6493,21.3787,3.0673,0.841907,0.2761
5.2,89.3968,37.6205,30.1453,21.6309,3.19467,0.885601,0.283734
5.3,90.9318,38.3758,30.6681,21.8879,3.30547,0.907484,0.267957
5.4,92.451,39.145,31.1777,22.1283,3.40695,0.939004,0.233112
5.5,93.9648,39.8997,31.715,22.35,3.50808,0.967376,0.183058
5.6,95.4869,40.6539,32.2498,22.5832,3.60093,0.985829,0.122045
5.7,97.0026,41.4236,32.787,22.792,3.64057,0.997695,0.0589737
5.8,98.4934,42.1682,33.3179,23.0073,3.68229,1.02678,0.00357301
5.9,99.994,42.9232,33.8501,23.2208,3.70116,1.05988,-0.0488416
6.0,101.557,43.6878,34.3932,23.4757,3.70027,1.08679,-0.107906
6.1,103.129,44.4432,34.9631,23.7223,3.71814,1.12252,-0.159238
6.2,104.629,45.1542,35.5252,23.9499,3.75726,1.18183,-0.197629
6.3,106.144,45.8001,36.1462,24.1973,3.79774,1.20656,-0.24666
6.4,107.693,46.4558,36.7989,24.4382,3.86101,1.23038,-0.277162
6.5,109.17,47.0813,37.438,24.6504,3.90382,1.24673,-0.324271
6.6,110.611,47.7053,38.0497,24.8558,3.95018,1.25839,-0.377112
6.7,112.013,48.3143,38.6561,25.043,4.00025,1.28143,-0.430872
6.8,113.383,48.8871,39.2593,25.2366,4.07444,1.30244,-0.480232
6.9,114.789,49.4912,39.9032,25.3944,4.16628,1.30709,-0.499695
7.0,116.138,50.0887,40.4848,25.5646,4.27758,1.27873,-0.495619
7.1,117.411,50.668,41.0584,25.6847,4.42576,1.23653,-0.49958
7.2,118.615,51.2011,41.62,25.7944,4.5391,1.2259,-0.52542
7.3,119.817,51.6749,42.2394,25.9026,4.62305,1.221,-0.531239
7.4,120.979,52.1617,42.8322,25.985,4.71368,1.22003,-0.501764
7.5,122.196,52.6533,43.4426,26.1006,4.81425,1.2379,-0.460844
7.6,123.525,53.1608,44.0905,26.2736,4.873,1.26125,-0.403301
7.7,124.751,53.6044,44.6807,26.4661,4.95683,1.25294,-0.312302
7.8,126.026,54.0662,45.2939,26.6658,5.08405,1.27788,-0.213523
7.9,127.112,54.4595,45.8405,26.8117,5.19485,1.28848,-0.116586
8.0,128.147,54.7645,46.3979,26.9851,5.26697,1.33535,-0.0120508
8.1,129.174,55.1045,46.9228,27.1469,5.28078,1.35745,0.107669
8.2,130.218,55.5004,47.4607,27.2567,5.26707,1.43036,0.235463
8.3,131.233,55.9466,48.0071,27.2793,5.20022,1.46954,0.373256
8.4,132.235,56.4216,48.4684,27.3446,5.16756,1.53483,0.528184
8.5,133.441,57.0137,49.026,27.4011,5.15074,1.60158,0.652776
8.6,134.746,57.5687,49.6488,27.5281,5.12627,1.65865,0.831766
8.7,136.207,58.2218,50.2753,27.7102,5.02791,1.71044,1.06287
8.8,137.634,58.9243,50.8759,27.8334,4.93674,1.72433,1.28354
8.9,139.036,59.6176,51.4478,27.9704,4.84817,1.76321,1.51354
9.0,140.364,60.3056,51.8742,28.1846,4.75569,1.79228,1.7142
9.1,141.623,61.0158,52.2845,28.3224,4.77469,1.8474,1.97266
9.2,142.592,61.4138,52.7005,28.4779,4.77354,1.89875,2.21604
9.3,143.455,62.0134,52.9489,28.4925,4.79738,1.85217,2.41277
9.4,144.207,62.3275,53.4885,28.391,4.84554,1.68804,2.61638
9.5,144.994,62.6199,53.9635,28.4107,4.868,1.54254,2.62883
9.6,146.067,63.1225,54.451,28.4938,4.95118,1.32249,2.50611
9.7,146.895,63.6043,54.8634,28.4272,4.94573,1.28566,2.25056
9.8,147.624,64.0229,55.49,28.111,5.14595,1.16605,1.88569
9.9,148.33,64.5291,55.7103,28.0901,5.33864,0.892318,1.31858
10.0,150.243,65.3572,56.5847,28.3006,5.36445,1.02044,0.65592
