Time (ns),trace,xx,yy,zz,yx,zx,zy
0.0,0.0,0.0,0.0,0.0,0.0,0.0,0.0
0.1,2.08554,0.700145,0.714064,0.671333,0.00192314,0.00743078,-7.49038e-05
0.2,4.08148,1.37661,1.40516,1.29971,0.00938314,0.0143917,-0.00967154
0.3,6.05405,2.06012,2.0851,1.90883,0.0161157,0.0165324,-0.0202129
0.4,7.98721,2.73101,2.74576,2.51044,0.0224063,0.022032,-0.0292863
0.5,9.90277,3.40461,3.40176,3.0964,0.023139,0.0243351,-0.0305433
0.6,11.787,4.07853,4.04917,3.65933,0.0307804,0.0304305,-0.0451323
0.7,13.6493,4.73768,4.69406,4.21756,0.044533,0.0333746,-0.0592303
0.8,15.5026,5.39663,5.32647,4.77955,0.0555875,0.0343197,-0.078731
0.9,17.3432,6.04767,5.96656,5.32896,0.0649764,0.0299425,-0.0932961
1.0,19.182,6.70936,6.59913,5.87347,0.0864111,0.0233737,-0.109483
1.1,21.0051,7.37349,7.23576,6.39582,0.11903,0.0227604,-0.120688
1.2,22.802,8.03326,7.86844,6.90032,0.156694,0.0259954,-0.129914
1.3,24.6048,8.70194,8.50041,7.40244,0.197794,0.0214647,-0.140686
1.4,26.3693,9.35309,9.12924,7.88697,0.235193,0.0239958,-0.155661
1.5,28.132,9.99061,9.75993,8.38143,0.272926,0.0250349,-0.173918
1.6,29.906,10.6353,10.3961,8.87447,0.313481,0.0225233,-0.190717
1.7,31.6578,11.2795,11.0249,9.35346,0.338617,0.00739319,-0.197498
1.8,33.4026,11.9425,11.644,9.8161,0.351925,-0.00678907,-0.20315
1.9,35.1186,12.6076,12.2503,10.2607,0.355259,-0.0221048,-0.216369
2.0,36.8126,13.2788,12.85,10.6838,0.369051,-0.0367952,-0.215118
2.1,38.5051,13.9637,13.4423,11.0992,0.378749,-0.0509869,-0.207079
2.2,40.1991,14.6518,14.0336,11.5137,0.388188,-0.0673601,-0.204178
2.3,41.9049,15.3493,14.6403,11.9153,0.402195,-0.0875637,-0.201033
2.4,43.5778,16.0374,15.2253,12.3151,0.406359,-0.106678,-0.208777
2.5,45.2395,16.7178,15.8154,12.7063,0.410781,-0.130647,-0.221062
2.6,46.8653,17.3953,16.3974,13.0726,0.424316,-0.160465,-0.231149
2.7,48.4674,18.0728,16.9697,13.4249,0.43349,-0.188105,-0.24118
2.8,50.0773,18.7376,17.5669,13.7728,0.440224,-0.212111,-0.260718
2.9,51.6803,19.3978,18.1663,14.1162,0.455546,-0.244788,-0.281534
3.0,53.2616,20.065,18.7404,14.4562,0.471285,-0.275028,-0.311585
3.1,54.8697,20.753,19.3276,14.7891,0.497952,-0.309956,-0.333351
3.2,56.4757,21.4376,19.9353,15.1028,0.536092,-0.351095,-0.356295
3.3,58.0335,22.104,20.5243,15.4052,0.589455,-0.40709,-0.381712
3.4,59.6231,22.8026,21.119,15.7014,0.655285,-0.463062,-0.396652
3.5,61.2118,23.5169,21.6985,15.9963,0.699891,-0.505618,-0.396618
3.6,62.8349,24.2306,22.3212,16.2831,0.754611,-0.556951,-0.405532
3.7,64.46,24.9559,22.9322,16.5719,0.799353,-0.612322,-0.408416
3.8,66.0379,25.6656,23.5441,16.8283,0.854154,-0.664144,-0.409158
3.9,67.6578,26.397,24.1599,17.1009,0.90518,-0.697752,-0.435025
4.0,69.2766,27.1556,24.7481,17.3728,0.95118,-0.727874,-0.44566
4.1,70.8693,27.9198,25.3279,17.6217,1.012,-0.765647,-0.483395
4.2,72.455,28.6742,25.8966,17.8841,1.06129,-0.784555,-0.52515
4.3,74.0401,29.4362,26.4527,18.1512,1.12537,-0.782057,-0.566683
4.4,75.5926,30.1864,26.9801,18.4261,1.1937,-0.780527,-0.589294
4.5,77.1056,30.8954,27.518,18.6922,1.25666,-0.780735,-0.621811
4.6,78.6607,31.6208,28.0753,18.9646,1.32568,-0.75683,-0.645085
4.7,80.2257,32.3599,28.6528,19.213,1.38391,-0.725438,-0.645794
4.8,81.7731,33.0868,29.2208,19.4656,1.43884,-0.694486,-0.647073
4.9,83.323,33.816,29.7935,19.7135,1.5233,-0.660032,-0.645832
5.0,84.9415,34.5719,30.391,19.9786,1.59739,-0.611802,-0.642361
5.1,86.5835,35.3494,30.9995,20.2346,1.66581,-0.54521,-0.655771
5.2,88.2726,36.1393,31.6282,20.5051,1.71466,-0.498546,-0.646868
5.3,89.9864,36.9251,32.2643,20.797,1.76002,-0.46105,-0.655939
5.4,91.6748,37.7117,32.8902,21.0729,1.80463,-0.417692,-0.660644
5.5,93.3873,38.5101,33.5326,21.3446,1.87569,-0.365839,-0.674428
5.6,95.1045,39.2781,34.1948,21.6317,1.92189,-0.325674,-0.696465
5.7,96.8458,40.0849,34.8571,21.9038,1.96715,-0.278615,-0.708216
5.8,98.6,40.8512,35.5387,22.2101,2.02056,-0.233565,-0.729816
5.9,100.256,41.5896,36.1925,22.4741,2.0755,-0.215987,-0.735082
6.0,101.889,42.2998,36.8277,22.7614,2.14799,-0.182846,-0.74401
6.1,103.554,43.0234,37.4626,23.0678,2.21155,-0.178277,-0.740701
6.2,105.314,43.7853,38.1451,23.3839,2.2896,-0.157358,-0.723177
6.3,107.045,44.5547,38.8203,23.6704,2.36323,-0.142647,-0.734273
6.4,108.798,45.3724,39.4789,23.9469,2.42597,-0.113446,-0.741448
6.5,110.615,46.2206,40.1688,24.2255,2.52222,-0.0955068,-0.743838
6.6,112.414,47.0526,40.847,24.5139,2.61327,-0.054684,-0.748922
6.7,114.15,47.8216,41.5374,24.7914,2.67044,-0.0550451,-0.771197
6.8,115.835,48.5428,42.238,25.0546,2.73097,-0.0912817,-0.780105
6.9,117.456,49.2044,42.9198,25.3322,2.73808,-0.137735,-0.802518
7.0,119.028,49.8301,43.5734,25.6243,2.73644,-0.166925,-0.822241
7.1,120.615,50.5038,44.2301,25.8813,2.80005,-0.177405,-0.803198
7.2,122.222,51.2072,44.9041,26.1105,2.84824,-0.186992,-0.80542
7.3,123.814,51.8647,45.616,26.3336,2.88759,-0.199377,-0.813788
7.4,125.487,52.6206,46.3483,26.5179,2.94703,-0.203161,-0.841907
7.5,127.198,53.4307,47.0683,26.6988,3.01255,-0.218756,-0.853259
7.6,128.899,54.2347,47.7506,26.9139,3.10758,-0.281486,-0.866306
7.7,130.671,55.0337,48.541,27.0958,3.16134,-0.326102,-0.84273
7.8,132.385,55.7814,49.343,27.2609,3.18706,-0.355541,-0.79556
7.9,134.149,56.5919,50.1243,27.4327,3.23649,-0.402515,-0.716507
8.0,135.898,57.4203,50.858,27.6198,3.31997,-0.459331,-0.68564
8.1,137.606,58.2168,51.6289,27.7604,3.41354,-0.576836,-0.656728
8.2,139.31,59.0029,52.427,27.8796,3.52539,-0.66091,-0.660566
8.3,141.009,59.8792,53.1274,28.0021,3.664,-0.69859,-0.678698
8.4,142.788,60.8005,53.8474,28.1403,3.85632,-0.787815,-0.706934
8.5,144.467,61.6342,54.5612,28.2714,4.00645,-0.921957,-0.745009
8.6,145.772,62.2251,55.134,28.4133,4.16558,-0.983266,-0.77707
8.7,147.084,62.8004,55.7341,28.5499,4.37076,-1.01773,-0.877959
8.8,148.336,63.4204,56.1938,28.7223,4.50044,-1.03194,-0.989273
8.9,149.505,63.9467,56.5999,28.9581,4.54047,-1.05282,-1.08684
9.0,150.54,64.4494,56.9767,29.1142,4.64688,-1.07795,-1.14769
9.1,151.759,65.0122,57.493,29.2543,4.79547,-1.04019,-1.28248
9.2,153.016,65.629,57.8136,29.5731,4.97014,-1.10332,-1.49906
9.3,154.043,66.072,58.2998,29.6714,4.97857,-1.13142,-1.64116
9.4,154.964,66.509,58.8454,29.6095,4.98841,-1.26306,-1.78014
9.5,156.121,66.9614,59.3296,29.8304,4.95571,-1.36707,-1.96732
9.6,156.638,66.8576,59.8386,29.9415,5.0076,-1.61443,-2.10615
9.7,157.188,67.0065,60.3317,29.8498,5.01775,-1.69547,-2.11489
9.8,157.837,67.0695,61.1035,29.6642,5.13192,-1.67484,-2.21533
9.9,158.262,67.4796,61.4126,29.3701,5.39374,-1.75112,-2.83398
10.0,157.842,67.4619,61.4244,28.9553,5.12683,-1.49106,-3.15756
