Time (ns),trace,xx,yy,zz,yx,zx,zy
0.0,0.0,0.0,0.0,0.0,0.0,0.0,0.0
0.1,2.11571,0.716504,0.722658,0.676544,0.00223236,-0.00242445,-0.00293802
0.2,4.19181,1.42757,1.44207,1.32217,-0.00133546,-0.0142075,-0.00822076
0.3,6.22599,2.12457,2.14557,1.95585,-0.00835275,-0.0319716,-0.0113451
0.4,8.21244,2.80889,2.83749,2.56606,-0.0159333,-0.0451836,-0.0146179
0.5,10.175,3.47465,3.53648,3.16385,-0.0166204,-0.0489905,-0.0169446
0.6,12.0764,4.12541,4.21382,3.73717,-0.0187437,-0.0583033,-0.0257197
0.7,13.9695,4.78392,4.89193,4.29365,-0.0151004,-0.0610837,-0.0321622
0.8,15.8285,5.42385,5.56916,4.83552,-0.0212814,-0.0621881,-0.0465105
0.9,17.6911,6.06869,6.25319,5.3692,-0.0258752,-0.0621903,-0.0591071
1.0,19.5415,6.70881,6.93714,5.89556,-0.0355257,-0.0836283,-0.0741775
1.1,21.3714,7.3433,7.61435,6.41378,-0.04502,-0.103889,-0.0909235
1.2,23.183,7.97401,8.28157,6.92745,-0.0527232,-0.125849,-0.115033
1.3,24.9734,8.59995,8.94749,7.42592,-0.0538079,-0.149469,-0.13963
1.4,26.7693,9.23409,9.61766,7.91758,-0.0528884,-0.182261,-0.157961
1.5,28.5458,9.86676,10.2706,8.40848,-0.0521964,-0.209063,-0.178397
1.6,30.314,10.4842,10.9283,8.90147,-0.0550064,-0.237323,-0.208859
1.7,32.0741,11.092,11.5847,9.39743,-0.0861472,-0.261219,-0.237755
1.8,33.8465,11.7188,12.2452,9.88246,-0.122212,-0.294287,-0.256482
1.9,35.5982,12.3479,12.9035,10.3469,-0.170773,-0.329855,-0.272841
2.0,37.3597,12.9899,13.5661,10.8037,-0.206638,-0.372178,-0.269062
2.1,39.121,13.6401,14.2276,11.2534,-0.237308,-0.403426,-0.268089
2.2,40.8862,14.3108,14.8769,11.6985,-0.274866,-0.43611,-0.26235
2.3,42.6628,14.9829,15.5397,12.1402,-0.325895,-0.484629,-0.245889
2.4,44.4517,15.6954,16.1947,12.5615,-0.381474,-0.512829,-0.234699
2.5,46.2041,16.4004,16.8583,12.9454,-0.433763,-0.541971,-0.213274
2.6,47.9221,17.0821,17.5067,13.3334,-0.520399,-0.55289,-0.180934
2.7,49.6205,17.7571,18.1521,13.7114,-0.594223,-0.567746,-0.151692
2.8,51.3143,18.4252,18.806,14.0831,-0.683182,-0.57453,-0.125472
2.9,53.0213,19.0836,19.493,14.4447,-0.774312,-0.574282,-0.0946285
3.0,54.7428,19.7516,20.1764,14.8147,-0.840233,-0.556648,-0.0658651
3.1,56.4991,20.4331,20.866,15.2001,-0.894892,-0.542512,-0.0520148
3.2,58.2524,21.1168,21.5546,15.581,-0.955966,-0.532697,-0.0432051
3.3,60.0302,21.82,22.2438,15.9664,-1.01858,-0.49445,-0.0459423
3.4,61.7709,22.5059,22.9423,16.3228,-1.08709,-0.468858,-0.052172
3.5,63.5184,23.1963,23.6269,16.6951,-1.14786,-0.438015,-0.0638528
3.6,65.2329,23.8708,24.3074,17.0547,-1.22377,-0.401324,-0.060127
3.7,66.919,24.5402,24.9807,17.398,-1.29916,-0.378783,-0.0439029
3.8,68.6215,25.2218,25.6509,17.7488,-1.36718,-0.383581,-0.0303409
3.9,70.3446,25.8934,26.3384,18.1128,-1.43908,-0.386897,-0.00179733
4.0,72.0779,26.5762,27.0368,18.4649,-1.50105,-0.38411,0.0184064
4.1,73.7656,27.2382,27.7205,18.8069,-1.55392,-0.366624,0.0446748
4.2,75.4461,27.9126,28.3902,19.1433,-1.59831,-0.349381,0.0798033
4.3,77.1188,28.5812,29.0647,19.4729,-1.63454,-0.339228,0.124463
4.4,78.7937,29.274,29.7388,19.7809,-1.6574,-0.333746,0.156368
4.5,80.5106,29.9773,30.43,20.1033,-1.69871,-0.316823,0.184194
4.6,82.2184,30.7145,31.0936,20.4102,-1.75118,-0.279858,0.205301
4.7,83.9475,31.4531,31.7562,20.7382,-1.79766,-0.248082,0.245513
4.8,85.6568,32.2114,32.3908,21.0546,-1.85236,-0.216734,0.285881
4.9,87.321,32.946,33.0423,21.3327,-1.89906,-0.193581,0.322149
5.0,88.9424,33.652,33.7057,21.5848,-1.93804,-0.161235,0.360812
5.1,90.5653,34.344,34.3796,21.8416,-1.98161,-0.126568,0.392009
5.2,92.1309,34.9707,35.0454,22.1149,-2.03437,-0.0947868,0.418445
5.3,93.6778,35.5991,35.703,22.3758,-2.07038,-0.0518064,0.442495
5.4,95.2393,36.2022,36.3843,22.6528,-2.09631,-0.00910899,0.463139
5.5,96.7646,36.7899,37.0598,22.9148,-2.12588,0.0462941,0.481801
5.6,98.3444,37.4012,37.7484,23.1948,-2.15161,0.0721994,0.476625
5.7,99.8943,37.956,38.4433,23.4949,-2.18311,0.0854735,0.477462
5.8,101.472,38.5695,39.1314,23.7713,-2.21909,0.085385,0.447816
5.9,103.12,39.2438,39.8449,24.0318,-2.25734,0.119406,0.478764
6.0,104.768,39.9136,40.5616,24.2923,-2.29686,0.133372,0.510338
6.1,106.359,40.5716,41.2431,24.5447,-2.34585,0.165623,0.545053
6.2,107.92,41.2015,41.938,24.7807,-2.39102,0.202846,0.57995
6.3,109.467,41.8252,42.668,24.974,-2.40696,0.230953,0.624089
6.4,111.045,42.4392,43.3994,25.2065,-2.41017,0.229474,0.664185
6.5,112.58,43.0413,44.1222,25.4169,-2.42392,0.214111,0.717409
6.6,114.126,43.6832,44.8491,25.5934,-2.46946,0.1938,0.767715
6.7,115.658,44.3008,45.5528,25.8049,-2.52921,0.227167,0.817991
6.8,117.208,44.9636,46.2636,25.9804,-2.61902,0.263839,0.850154
6.9,118.813,45.699,46.9411,26.1729,-2.7156,0.314686,0.879897
7.0,120.394,46.4548,47.5913,26.3482,-2.83734,0.379333,0.901738
7.1,122.016,47.2443,48.302,26.4701,-2.92754,0.442489,0.915467
7.2,123.661,48.0321,49.0045,26.6246,-2.99876,0.511048,0.916171
7.3,125.304,48.7976,49.7181,26.7879,-3.0789,0.592961,0.937996
7.4,126.916,49.559,50.4397,26.9169,-3.18375,0.688293,0.949097
7.5,128.459,50.2882,51.1131,27.0578,-3.29226,0.789938,0.965588
7.6,130.022,51.0787,51.7972,27.1463,-3.39338,0.869632,0.969369
7.7,131.577,51.8644,52.5356,27.1773,-3.46152,0.967627,0.959593
7.8,133.115,52.7002,53.1814,27.2331,-3.52522,1.0721,1.00704
7.9,134.693,53.5233,53.8369,27.3324,-3.58416,1.20972,1.01569
8.0,136.379,54.3274,54.5983,27.453,-3.69543,1.36325,1.03771
8.1,138.091,55.0938,55.4042,27.593,-3.83704,1.53569,1.02541
8.2,139.769,55.8291,56.2093,27.7302,-3.97603,1.79263,0.974214
8.3,141.423,56.5823,56.9519,27.8892,-4.12857,2.00281,0.999245
8.4,143.008,57.3485,57.6509,28.0089,-4.28317,2.21827,1.04829
8.5,144.661,58.1243,58.3655,28.1715,-4.43496,2.35646,1.11882
8.6,146.447,58.9333,59.1615,28.3521,-4.54039,2.46626,1.2709
8.7,148.068,59.6987,59.8953,28.4738,-4.59262,2.54301,1.35189
8.8,149.671,60.48,60.6412,28.5496,-4.64845,2.66808,1.48536
8.9,151.158,61.0643,61.3359,28.7577,-4.66903,2.72274,1.68694
9.0,152.393,61.4007,62.0502,28.9425,-4.69796,2.80532,1.86425
9.1,153.809,61.9661,62.698,29.1449,-4.7206,2.85177,2.02238
9.2,155.626,62.6678,63.5835,29.3751,-4.70837,3.03038,2.17253
9.3,157.575,63.5512,64.5717,29.4521,-4.5933,3.18439,2.34745
9.4,159.373,64.5201,65.3515,29.5013,-4.48337,3.33317,2.44162
9.5,161.065,65.4415,66.07,29.5531,-4.37941,3.42863,2.70053
9.6,162.545,66.2788,66.7202,29.5456,-4.19792,3.52006,2.86097
9.7,164.479,67.2686,67.5526,29.6574,-4.0633,3.73483,2.87752
9.8,166.487,68.4155,68.4588,29.6124,-3.95043,3.93352,2.90386
9.9,168.748,69.3008,69.7071,29.7402,-3.89025,4.11718,2.96881
10.0,170.814,69.7776,71.056,29.9804,-3.53633,4.32193,2.90859
