Time (ns),trace,xx,yy,zz,yx,zx,zy
0.0,0.0,0.0,0.0,0.0,0.0,0.0,0.0
0.1,2.10793,0.72171,0.705278,0.680944,0.00986498,-0.00204011,0.00189491
0.2,4.15517,1.43437,1.38642,1.33438,0.016419,-0.002234,0.0044861
0.3,6.14985,2.14112,2.04915,1.95958,0.0260652,-0.00391374,0.00856496
0.4,8.12369,2.85393,2.7052,2.56456,0.034305,-0.011644,0.0163942
0.5,10.0501,3.55383,3.34267,3.15364,0.0401203,-0.0231488,0.0287505
0.6,11.972,4.25862,3.97732,3.73602,0.0422755,-0.0412064,0.0467714
0.7,13.8854,4.96576,4.60253,4.3171,0.0493315,-0.0603611,0.0556425
0.8,15.8041,5.68224,5.21777,4.90404,0.0497592,-0.0775215,0.0613417
0.9,17.7152,6.4031,5.8263,5.48583,0.0379067,-0.105271,0.0558087
1.0,19.652,7.14272,6.44132,6.06795,0.0214158,-0.135631,0.0374976
1.1,21.584,7.88022,7.0565,6.64732,0.00487265,-0.161748,0.0282491
1.2,23.5092,8.6211,7.66648,7.22165,-0.0124418,-0.200275,0.0234993
1.3,25.4287,9.36689,8.29311,7.76867,-0.0368523,-0.241759,0.0119058
1.4,27.3479,10.0935,8.92583,8.32857,-0.0619266,-0.27787,-0.00528852
1.5,29.2787,10.8352,9.56371,8.87982,-0.086074,-0.30888,-0.0263498
1.6,31.1908,11.5696,10.1979,9.42323,-0.120691,-0.34805,-0.040096
1.7,33.0689,12.3021,10.8074,9.95943,-0.15344,-0.375075,-0.0528742
1.8,34.9457,13.0495,11.4039,10.4924,-0.169683,-0.404024,-0.0591806
1.9,36.8456,13.8149,12.0124,11.0183,-0.179213,-0.429532,-0.0533604
2.0,38.7042,14.5741,12.6099,11.5203,-0.188304,-0.448285,-0.0519828
2.1,40.5772,15.3393,13.2206,12.0172,-0.197945,-0.462068,-0.0507661
2.2,42.4543,16.1004,13.8294,12.5245,-0.213491,-0.459349,-0.0427371
2.3,44.3269,16.859,14.4308,13.0371,-0.221599,-0.464183,-0.0435838
2.4,46.2018,17.6171,15.049,13.5357,-0.227831,-0.464753,-0.0414549
2.5,48.0574,18.3626,15.6573,14.0375,-0.233551,-0.46939,-0.0254496
2.6,49.8972,19.1141,16.2567,14.5264,-0.223155,-0.462836,-0.00584691
2.7,51.742,19.8654,16.8628,15.0139,-0.218226,-0.449578,0.0245749
2.8,53.5654,20.6238,17.4488,15.4927,-0.201122,-0.434642,0.0473005
2.9,55.3866,21.3828,18.0416,15.9623,-0.175471,-0.416883,0.0818561
3.0,57.2087,22.1524,18.6416,16.4147,-0.159073,-0.406483,0.119892
3.1,59.0056,22.9126,19.2448,16.8482,-0.143758,-0.379563,0.163667
3.2,60.8057,23.6866,19.8447,17.2745,-0.114837,-0.345333,0.198166
3.3,62.5932,24.4538,20.4382,17.7012,-0.0896619,-0.310389,0.243968
3.4,64.391,25.2207,21.0385,18.1317,-0.0464888,-0.286081,0.269852
3.5,66.1631,25.9823,21.6322,18.5486,-0.0100389,-0.264538,0.267657
3.6,67.9593,26.7821,22.2203,18.9569,0.0192588,-0.228752,0.270793
3.7,69.7998,27.6058,22.8541,19.3399,0.0452172,-0.218585,0.289493
3.8,71.6252,28.4266,23.4741,19.7245,0.0538878,-0.212826,0.29819
3.9,73.4583,29.2646,24.111,20.0828,0.0617942,-0.189963,0.310729
4.0,75.3095,30.122,24.7539,20.4336,0.0614737,-0.162617,0.346899
4.1,77.1335,30.9805,25.3933,20.7598,0.0850634,-0.128669,0.371466
4.2,78.981,31.849,26.0345,21.0976,0.103832,-0.123554,0.386631
4.3,80.8726,32.7606,26.6777,21.4343,0.111244,-0.124186,0.409955
4.4,82.7845,33.6806,27.3582,21.7457,0.121886,-0.110038,0.423576
4.5,84.6409,34.5817,28.0042,22.055,0.109281,-0.0913211,0.445893
4.6,86.4396,35.4789,28.6226,22.338,0.09341,-0.0454793,0.481531
4.7,88.2381,36.3794,29.2489,22.6098,0.0784489,0.00480015,0.533497
4.8,90.007,37.2729,29.8592,22.875,0.0688596,0.0558706,0.570949
4.9,91.7916,38.1732,30.4708,23.1476,0.0556232,0.102512,0.623705
5.0,93.5809,39.0369,31.1296,23.4143,0.0168934,0.130978,0.676691
5.1,95.3412,39.8944,31.7789,23.668,-0.0146127,0.178322,0.722588
5.2,97.0859,40.7631,32.4058,23.917,-0.060459,0.216409,0.790432
5.3,98.8332,41.656,33.0364,24.1408,-0.101619,0.254779,0.870194
5.4,100.583,42.5473,33.6563,24.3794,-0.155496,0.297376,0.955601
5.5,102.377,43.4572,34.2675,24.6523,-0.208299,0.338057,1.06159
5.6,104.14,44.3459,34.8663,24.9277,-0.270495,0.386673,1.16189
5.7,105.916,45.2528,35.4517,25.2113,-0.291683,0.447552,1.25311
5.8,107.613,46.122,36.0013,25.4896,-0.292458,0.518382,1.33703
5.9,109.302,47.0299,36.5284,25.7437,-0.322182,0.571603,1.41796
6.0,110.967,47.8836,37.0596,26.024,-0.349164,0.618402,1.5217
6.1,112.653,48.7465,37.5959,26.3103,-0.400072,0.661043,1.62022
6.2,114.285,49.5953,38.0587,26.6308,-0.430883,0.702896,1.69062
6.3,115.929,50.4424,38.5487,26.9379,-0.480001,0.727975,1.76361
6.4,117.533,51.2154,39.0459,27.2719,-0.508676,0.79532,1.85506
6.5,119.204,52.0098,39.5642,27.6301,-0.542879,0.86,1.96986
6.6,120.851,52.7818,40.0633,28.0056,-0.576292,0.938754,2.09523
6.7,122.52,53.5507,40.5748,28.3945,-0.625192,0.979024,2.21743
6.8,124.145,54.3281,41.0638,28.7527,-0.676735,1.00865,2.31409
6.9,125.854,55.1667,41.5767,29.1103,-0.708838,1.03943,2.38526
7.0,127.616,56.0742,42.0844,29.4576,-0.778789,1.04859,2.46154
7.1,129.292,56.9515,42.5689,29.7715,-0.841269,1.06633,2.57286
7.2,130.958,57.8612,43.0177,30.0792,-0.919369,1.0872,2.68075
7.3,132.593,58.7181,43.4738,30.4009,-0.968226,1.1186,2.77152
7.4,134.21,59.5861,43.9355,30.6885,-0.988229,1.12006,2.81747
7.5,135.719,60.3871,44.3856,30.9458,-1.03243,1.09927,2.86566
7.6,137.249,61.1768,44.8429,31.2297,-1.08684,1.10192,2.93293
7.7,138.768,61.9582,45.2925,31.5175,-1.18854,1.12762,2.98317
7.8,140.417,62.7879,45.8493,31.7802,-1.28676,1.15281,3.0224
7.9,142.018,63.6055,46.3865,32.0264,-1.41871,1.14711,3.08495
8.0,143.524,64.3982,46.9256,32.2006,-1.55795,1.17402,3.1
8.1,145.09,65.2962,47.4761,32.3176,-1.72203,1.18644,3.12956
8.2,146.747,66.2197,48.0402,32.4868,-1.87098,1.15306,3.1404
8.3,148.353,67.0531,48.629,32.671,-1.99825,1.1756,3.09979
8.4,149.788,67.8855,49.1173,32.7856,-2.12197,1.17205,3.03809
8.5,151.158,68.6277,49.6354,32.895,-2.19036,1.18843,3.01249
8.6,152.722,69.553,50.1206,33.0481,-2.25732,1.19829,3.01871
8.7,154.307,70.5123,50.6082,33.1868,-2.28547,1.22947,3.00281
8.8,156.036,71.6539,51.1026,33.2791,-2.35571,1.32672,2.99088
8.9,157.686,72.6145,51.7265,33.3452,-2.35813,1.43222,2.95898
9.0,159.413,73.476,52.4054,33.5313,-2.38049,1.49509,3.01146
9.1,161.139,74.4199,52.9513,33.7683,-2.50139,1.51337,3.1228
9.2,162.604,75.205,53.3932,34.0057,-2.55309,1.49962,3.14416
9.3,163.969,75.7759,53.9499,34.2435,-2.6872,1.53848,3.25315
9.4,165.194,76.1891,54.4971,34.5078,-3.05949,1.45273,3.4185
9.5,166.952,76.7968,55.2484,34.9069,-3.3423,1.319,3.57063
9.6,168.692,77.4238,55.9992,35.2694,-3.89684,1.20906,3.66466
9.7,170.358,77.8245,56.8648,35.6684,-4.34671,1.16026,3.74998
9.8,171.915,78.2512,57.5704,36.093,-4.40175,1.06177,4.00765
9.9,173.097,78.0901,58.7993,36.2074,-3.89068,0.969773,4.02154
10.0,173.308,77.617,59.9589,35.7321,-3.54055,1.02942,3.92683
