Time (ns),trace,xx,yy,zz,yx,zx,zy
0.0,0.0,0.0,0.0,0.0,0.0,0.0,0.0
0.1,2.11555,0.710456,0.716632,0.688457,0.00529405,-0.000574799,-0.00382306
0.2,4.14775,1.40929,1.41607,1.32238,0.00468578,0.0015201,-0.00171706
0.3,6.14294,2.09472,2.11682,1.93139,-0.00139653,0.0131748,-0.00426314
0.4,8.12162,2.77446,2.81649,2.53066,-0.00867463,0.0248643,-0.0117005
0.5,10.0746,3.45089,3.52015,3.10357,-0.0205032,0.0317406,-0.0166687
0.6,12.0035,4.13537,4.2147,3.65344,-0.0274151,0.0475071,-0.0219267
0.7,13.9162,4.81759,4.90615,4.19246,-0.0309431,0.055414,-0.0226151
0.8,15.8143,5.49717,5.59094,4.72616,-0.0319801,0.062765,-0.0198983
0.9,17.7056,6.18939,6.27356,5.24267,-0.0264513,0.0697743,-0.0211092
1.0,19.5911,6.87982,6.95352,5.75778,-0.0158072,0.0782706,-0.010356
1.1,21.4555,7.5545,7.63152,6.26946,0.00536926,0.0888876,0.00271903
1.2,23.2966,8.22343,8.31124,6.76193,0.0403029,0.101366,0.00847397
1.3,25.1212,8.89658,8.99133,7.23325,0.0762129,0.121164,0.0154808
1.4,26.9523,9.58978,9.66889,7.69363,0.106281,0.145219,0.0240411
1.5,28.7655,10.2615,10.3554,8.14864,0.134535,0.164995,0.0329221
1.6,30.5809,10.9315,11.0505,8.59893,0.156311,0.188813,0.0318838
1.7,32.4065,11.5993,11.7456,9.06164,0.161832,0.216886,0.022824
1.8,34.2378,12.2688,12.4581,9.5109,0.169095,0.242016,0.00929035
1.9,36.0695,12.9561,13.1555,9.95781,0.170297,0.28104,-0.0168108
2.0,37.9092,13.639,13.853,10.4172,0.166577,0.325031,-0.0647812
2.1,39.7705,14.3315,14.5563,10.8827,0.143919,0.363309,-0.121863
2.2,41.6383,15.0315,15.2614,11.3454,0.12617,0.401778,-0.172363
2.3,43.5198,15.7514,15.9641,11.8043,0.117855,0.431973,-0.233016
2.4,45.3986,16.4902,16.6556,12.2527,0.0987218,0.458017,-0.301029
2.5,47.2751,17.2226,17.353,12.6996,0.0582034,0.49136,-0.365855
2.6,49.1465,17.9659,18.0552,13.1253,0.0232701,0.534497,-0.429402
2.7,51.0416,18.7319,18.7598,13.5499,-0.0153056,0.574022,-0.511379
2.8,52.8861,19.4645,19.4545,13.9671,-0.0640877,0.602616,-0.591497
2.9,54.7203,20.1706,20.1597,14.39,-0.119739,0.633899,-0.654445
3.0,56.5548,20.8876,20.858,14.8092,-0.175581,0.666696,-0.720105
3.1,58.3896,21.5907,21.5783,15.2206,-0.236084,0.712114,-0.774348
3.2,60.222,22.2942,22.3079,15.6199,-0.304604,0.764339,-0.840178
3.3,62.0611,22.999,23.0418,16.0203,-0.361601,0.835132,-0.902114
3.4,63.8659,23.691,23.7785,16.3965,-0.419292,0.911784,-0.964823
3.5,65.6745,24.3983,24.5139,16.7622,-0.485313,0.975153,-1.03146
3.6,67.5038,25.1181,25.2565,17.1292,-0.554775,1.02792,-1.10378
3.7,69.366,25.8319,26.021,17.5131,-0.624939,1.09835,-1.17995
3.8,71.2488,26.5361,26.8084,17.9043,-0.696256,1.16938,-1.24857
3.9,73.1216,27.2373,27.5889,18.2953,-0.774335,1.23249,-1.32018
4.0,74.9539,27.9396,28.3596,18.6547,-0.863832,1.28408,-1.39766
4.1,76.7539,28.6179,29.1065,19.0295,-0.969319,1.31929,-1.44824
4.2,78.5654,29.3036,29.8622,19.3996,-1.09917,1.35921,-1.49182
4.3,80.3811,29.9848,30.6273,19.769,-1.23245,1.41157,-1.54033
4.4,82.2334,30.6648,31.4158,20.1528,-1.34096,1.47272,-1.61482
4.5,84.0686,31.3276,32.1933,20.5477,-1.43484,1.54571,-1.68105
4.6,85.9074,31.9993,32.9717,20.9365,-1.53792,1.62724,-1.71597
4.7,87.7084,32.6517,33.7396,21.317,-1.65277,1.7235,-1.75712
4.8,89.5111,33.3057,34.5018,21.7035,-1.77946,1.82082,-1.78616
4.9,91.3237,33.9742,35.2816,22.0679,-1.88974,1.91695,-1.85007
5.0,93.1,34.6136,36.0472,22.4392,-2.00935,2.01852,-1.89911
5.1,94.9064,35.2723,36.8314,22.8028,-2.13457,2.11169,-1.96459
5.2,96.7404,35.9495,37.6146,23.1763,-2.25034,2.20401,-2.0206
5.3,98.5701,36.6464,38.4066,23.5171,-2.36466,2.30686,-2.08184
5.4,100.419,37.3619,39.1858,23.8709,-2.46325,2.41186,-2.1397
5.5,102.242,38.0556,39.9672,24.2193,-2.56882,2.50655,-2.20641
5.6,104.037,38.7125,40.7446,24.5795,-2.66786,2.58111,-2.2497
5.7,105.795,39.3863,41.499,24.9096,-2.78133,2.66655,-2.3072
5.8,107.583,40.0639,42.2841,25.2349,-2.87866,2.73357,-2.35643
5.9,109.43,40.7401,43.1143,25.5759,-2.99184,2.80076,-2.39625
6.0,111.282,41.3917,43.997,25.8929,-3.12144,2.87757,-2.42762
6.1,113.154,42.0587,44.9132,26.1822,-3.22385,2.92263,-2.462
6.2,114.979,42.7242,45.8335,26.4217,-3.32371,2.9466,-2.51083
6.3,116.815,43.3952,46.7626,26.6574,-3.42949,2.98496,-2.56561
6.4,118.595,44.0455,47.6306,26.9193,-3.50465,3.00223,-2.61953
6.5,120.36,44.7062,48.5074,27.1462,-3.59106,3.01727,-2.66955
6.6,122.074,45.3224,49.3708,27.3811,-3.68101,3.01813,-2.72461
6.7,123.792,45.9478,50.2347,27.6096,-3.78613,3.02935,-2.76977
6.8,125.573,46.6239,51.1248,27.8242,-3.86876,3.01959,-2.83895
6.9,127.373,47.329,51.9744,28.0696,-3.93109,3.0091,-2.92145
7.0,129.136,48.0559,52.8032,28.277,-3.96642,3.00366,-2.98871
7.1,130.9,48.8188,53.6181,28.463,-4.00049,2.97852,-3.02641
7.2,132.544,49.5703,54.3604,28.6134,-4.02991,2.95608,-3.03502
7.3,134.157,50.3269,55.0883,28.7415,-4.05855,2.94818,-3.03314
7.4,135.714,51.0458,55.8074,28.8608,-4.09379,2.91566,-3.01157
7.5,137.332,51.7919,56.5197,29.0201,-4.15728,2.89468,-2.9992
7.6,139.063,52.5858,57.2781,29.1987,-4.18631,2.93355,-2.97382
7.7,140.8,53.4449,58.0029,29.3525,-4.25029,2.94829,-2.95718
7.8,142.487,54.2637,58.7725,29.4507,-4.35229,2.9469,-2.90966
7.9,144.183,55.0995,59.5359,29.548,-4.343,2.94101,-2.8339
8.0,145.928,55.9864,60.3115,29.6296,-4.3309,2.93998,-2.6968
8.1,147.597,56.8725,61.0326,29.6918,-4.26835,2.9516,-2.61029
8.2,149.234,57.6813,61.7326,29.8202,-4.25153,2.96535,-2.50265
8.3,150.691,58.4671,62.2809,29.9427,-4.22658,2.98617,-2.43274
8.4,152.227,59.2891,62.8755,30.0628,-4.18206,3.06811,-2.36075
8.5,153.811,60.0247,63.5796,30.2063,-4.15127,3.20602,-2.28283
8.6,155.416,60.7563,64.2573,30.4022,-4.15813,3.33247,-2.17213
8.7,157.071,61.4381,65.0682,30.565,-4.08643,3.39282,-2.04657
8.8,158.742,62.1405,65.8797,30.7222,-3.96278,3.41862,-1.86699
8.9,160.486,62.837,66.7557,30.8929,-3.9427,3.45961,-1.63287
9.0,162.153,63.4583,67.5903,31.1042,-3.94247,3.48912,-1.40063
9.1,163.792,64.0149,68.5028,31.2743,-3.9034,3.4663,-1.13859
9.2,165.375,64.5905,69.2647,31.5197,-3.89438,3.48611,-0.869959
9.3,167.014,65.3652,70.0033,31.6459,-3.97178,3.57098,-0.683624
9.4,168.9,66.1739,70.8167,31.9096,-4.02467,3.78722,-0.462158
9.5,170.376,66.7804,71.5493,32.0468,-4.23994,4.04192,-0.233835
9.6,171.985,67.383,72.1095,32.4926,-4.44439,4.22771,0.0937852
9.7,173.54,68.157,72.6593,32.7238,-4.63095,4.37759,0.48864
9.8,174.95,68.5527,73.2183,33.1787,-4.39224,4.64852,0.896895
9.9,176.798,69.1004,73.9191,33.7784,-4.14674,4.96337,1.25759
10.0,177.665,69.5547,74.6518,33.4586,-4.70284,5.43957,1.48976
