Time (ns),trace,xx,yy,zz,yx,zx,zy
0.0,0.0,0.0,0.0,0.0,0.0,0.0,0.0
0.1,2.1274,0.716791,0.718653,0.691955,0.00700348,-0.00511541,-0.0167561
0.2,4.15873,1.41477,1.40724,1.33672,0.00613908,-0.0189213,-0.0435517
0.3,6.13818,2.09861,2.08221,1.95736,-0.00207666,-0.0379513,-0.0770847
0.4,8.09583,2.77207,2.75789,2.56587,0.00671861,-0.0611834,-0.118376
0.5,10.0789,3.46302,3.43327,3.18259,0.0132451,-0.0791854,-0.162658
0.6,12.0305,4.15479,4.10159,3.77412,0.0236035,-0.0970684,-0.195573
0.7,13.9696,4.84327,4.77231,4.35399,0.0356029,-0.108992,-0.22468
0.8,15.8944,5.52996,5.44009,4.92431,0.0531553,-0.112563,-0.264877
0.9,17.811,6.21841,6.11474,5.47782,0.0763361,-0.117106,-0.307925
1.0,19.7297,6.9108,6.79615,6.02274,0.103001,-0.123602,-0.357399
1.1,21.6258,7.60018,7.4783,6.54733,0.126412,-0.130051,-0.397446
1.2,23.4804,8.27319,8.15684,7.05033,0.15884,-0.12841,-0.427731
1.3,25.3166,8.93224,8.83441,7.54995,0.197748,-0.124906,-0.456378
1.4,27.1367,9.58277,9.50094,8.05297,0.227819,-0.124394,-0.491776
1.5,28.9451,10.2341,10.1693,8.54171,0.263256,-0.12515,-0.537368
1.6,30.7609,10.8943,10.8375,9.02912,0.302828,-0.136506,-0.581344
1.7,32.5784,11.5607,11.5071,9.51052,0.343802,-0.14601,-0.622576
1.8,34.3779,12.2382,12.1599,9.9798,0.392726,-0.160509,-0.674785
1.9,36.1874,12.9343,12.8149,10.4382,0.446703,-0.179337,-0.717947
2.0,37.9787,13.6312,13.4749,10.8726,0.490539,-0.19541,-0.757114
2.1,39.7693,14.3345,14.1262,11.3085,0.521358,-0.211417,-0.803774
2.2,41.5569,15.0426,14.7725,11.7418,0.564364,-0.21896,-0.829682
2.3,43.3698,15.7579,15.4286,12.1833,0.612395,-0.225508,-0.866918
2.4,45.1996,16.4829,16.1034,12.6133,0.661877,-0.245574,-0.892926
2.5,47.0015,17.2227,16.7683,13.0105,0.705129,-0.261616,-0.9179
2.6,48.7717,17.9482,17.4328,13.3907,0.75494,-0.276387,-0.938919
2.7,50.5472,18.6908,18.1073,13.749,0.808167,-0.297838,-0.965538
2.8,52.3243,19.4353,18.7852,14.1038,0.856908,-0.32259,-0.990882
2.9,54.0714,20.17,19.4443,14.4571,0.916376,-0.346914,-1.02597
3.0,55.8523,20.9152,20.1141,14.823,0.976734,-0.372009,-1.06575
3.1,57.6112,21.6426,20.7876,15.181,1.04182,-0.381149,-1.09886
3.2,59.4019,22.385,21.4743,15.5426,1.11851,-0.370456,-1.15838
3.3,61.1759,23.1197,22.1528,15.9034,1.19582,-0.364485,-1.21675
3.4,62.9428,23.866,22.8171,16.2597,1.281,-0.368073,-1.28434
3.5,64.6859,24.6247,23.4512,16.61,1.37091,-0.3716,-1.35698
3.6,66.4509,25.3951,24.0955,16.9602,1.46639,-0.386483,-1.42408
3.7,68.1966,26.1669,24.7381,17.2917,1.56338,-0.416131,-1.50417
3.8,69.9862,26.9738,25.3897,17.6228,1.67043,-0.428272,-1.5895
3.9,71.8047,27.794,26.0514,17.9594,1.77901,-0.455822,-1.69303
4.0,73.6119,28.6213,26.7045,18.2861,1.86202,-0.480189,-1.80487
4.1,75.4461,29.4543,27.3611,18.6307,1.95954,-0.50104,-1.92835
4.2,77.2469,30.2907,28.0028,18.9535,2.05479,-0.513635,-2.05998
4.3,79.0502,31.1338,28.6319,19.2845,2.15784,-0.526998,-2.18712
4.4,80.8298,31.9722,29.2375,19.6201,2.23978,-0.54236,-2.30951
4.5,82.5302,32.7814,29.8181,19.9308,2.32552,-0.555904,-2.43593
4.6,84.2099,33.5637,30.3961,20.25,2.41636,-0.565251,-2.52936
4.7,85.8605,34.3625,30.9713,20.5268,2.50055,-0.572763,-2.62249
4.8,87.5319,35.1835,31.5656,20.7828,2.56832,-0.568047,-2.73137
4.9,89.1793,35.9777,32.1673,21.0343,2.60346,-0.555538,-2.81416
5.0,90.8919,36.8223,32.7818,21.2878,2.66191,-0.54859,-2.91035
5.1,92.6282,37.6599,33.4185,21.5497,2.74407,-0.556121,-2.97432
5.2,94.3196,38.4612,34.0464,21.812,2.83103,-0.566608,-3.04966
5.3,96.01,39.2583,34.6705,22.0812,2.92616,-0.565199,-3.14655
5.4,97.7078,40.0431,35.3267,22.3379,3.00137,-0.547839,-3.23966
5.5,99.4056,40.8261,35.9928,22.5867,3.08308,-0.533374,-3.34489
5.6,101.075,41.5719,36.6573,22.8461,3.20007,-0.538301,-3.44649
5.7,102.753,42.2982,37.3293,23.1258,3.30799,-0.547044,-3.54617
5.8,104.433,43.0228,38.0179,23.3917,3.44697,-0.557793,-3.63442
5.9,106.134,43.7878,38.7304,23.6159,3.58325,-0.56438,-3.70622
6.0,107.855,44.5344,39.4882,23.8327,3.68896,-0.574217,-3.77284
6.1,109.585,45.2694,40.2651,24.0506,3.7743,-0.599697,-3.82436
6.2,111.252,45.9468,41.0525,24.2524,3.87613,-0.636911,-3.87762
6.3,112.897,46.5858,41.8008,24.5101,3.9804,-0.656497,-3.92009
6.4,114.53,47.2201,42.5657,24.7445,4.07116,-0.694702,-3.96093
6.5,116.187,47.8999,43.3175,24.9696,4.17181,-0.746745,-3.99401
6.6,117.757,48.5463,44.0661,25.1446,4.24786,-0.814049,-4.04048
6.7,119.254,49.1858,44.7538,25.3147,4.3317,-0.869288,-4.08296
6.8,120.74,49.7874,45.4787,25.4742,4.39768,-0.935173,-4.12816
6.9,122.295,50.4338,46.2075,25.6535,4.43154,-0.996699,-4.13954
7.0,123.807,51.0456,46.9475,25.8142,4.47491,-1.12078,-4.1566
7.1,125.337,51.6796,47.7052,25.952,4.50312,-1.2532,-4.15497
7.2,126.876,52.2917,48.4372,26.147,4.56905,-1.35924,-4.10548
7.3,128.442,52.9305,49.2251,26.2865,4.65,-1.453,-4.0342
7.4,129.929,53.5478,49.9245,26.4563,4.73287,-1.54273,-3.96226
7.5,131.471,54.1608,50.6709,26.6389,4.81736,-1.61331,-3.90096
7.6,132.952,54.7787,51.3814,26.7918,4.90312,-1.63402,-3.83285
7.7,134.466,55.4297,52.0753,26.9612,4.97159,-1.67239,-3.74073
7.8,135.974,56.1723,52.6897,27.1124,5.007,-1.69884,-3.59344
7.9,137.548,56.9637,53.3128,27.2711,5.04479,-1.73571,-3.44816
8.0,139.117,57.7069,53.9315,27.4789,5.14902,-1.75883,-3.30301
8.1,140.676,58.4671,54.535,27.6741,5.24883,-1.79573,-3.20846
8.2,142.216,59.1806,55.1288,27.9069,5.31271,-1.81236,-3.14365
8.3,143.599,59.8107,55.7357,28.0531,5.32022,-1.84415,-3.04782
8.4,145.015,60.4288,56.2293,28.3571,5.30523,-1.90192,-2.99537
8.5,146.278,60.9883,56.7319,28.5576,5.26541,-1.95423,-2.89141
8.6,147.519,61.5982,57.2692,28.6517,5.23645,-1.99193,-2.74388
8.7,148.81,62.2893,57.7804,28.7402,5.20348,-2.12851,-2.59271
8.8,150.113,63.0698,58.2714,28.7717,5.09188,-2.18657,-2.46238
8.9,151.463,63.8002,58.8348,28.8277,4.88293,-2.2986,-2.3354
9.0,152.845,64.5485,59.4705,28.8264,4.74325,-2.47219,-2.22694
9.1,154.173,65.2723,60.0208,28.8801,4.79996,-2.52511,-2.05939
9.2,155.518,66.1386,60.5539,28.8259,4.74166,-2.53003,-1.8503
9.3,156.834,66.9273,61.0023,28.904,4.64293,-2.49396,-1.7113
9.4,158.243,67.7441,61.51,28.989,4.62953,-2.47264,-1.70756
9.5,159.575,68.2807,62.0854,29.2085,4.64192,-2.43862,-1.71425
9.6,161.509,69.0242,62.8907,29.5936,4.33889,-2.44949,-1.54621
9.7,163.862,70.1027,63.7686,29.9902,3.79419,-2.40043,-1.47955
9.8,166.23,71.0259,64.9251,30.279,3.59063,-2.17528,-1.20626
9.9,168.68,72.1918,65.7349,30.753,2.91903,-1.83857,-1.11464
10.0,171.066,73.3039,65.8583,31.9038,2.29127,-1.92901,-0.72704
