Time (ns),trace,xx,yy,zz,yx,zx,zy
0.0,0.0,0.0,0.0,0.0,0.0,0.0,0.0
0.1,2.12167,0.72597,0.715902,0.679794,0.00459287,-0.00558644,0.00701351
0.2,4.18426,1.43682,1.41312,1.33432,0.00281806,-0.0215527,0.0106005
0.3,6.21804,2.15086,2.10437,1.9628,-0.000240352,-0.0393993,0.00642223
0.4,8.22643,2.85047,2.79295,2.58301,-0.00489602,-0.0584308,-0.00313981
0.5,10.2219,3.54652,3.47023,3.20514,-0.0113928,-0.0787172,-0.0186494
0.6,12.2099,4.24388,4.14735,3.81871,-0.023584,-0.0971505,-0.0290323
0.7,14.1814,4.95112,4.81916,4.41113,-0.0343475,-0.116988,-0.0350299
0.8,16.1384,5.64613,5.49609,4.99622,-0.0392066,-0.13369,-0.0361619
0.9,18.077,6.32834,6.18627,5.56237,-0.0361456,-0.154333,-0.0373441
1.0,20.0088,7.01261,6.87207,6.12417,-0.0342981,-0.165832,-0.0448403
1.1,21.9572,7.69588,7.58307,6.67822,-0.0353648,-0.170785,-0.0515932
1.2,23.9053,8.37976,8.3058,7.21971,-0.0336714,-0.17179,-0.0669901
1.3,25.8438,9.07454,9.02635,7.74288,-0.0296401,-0.183921,-0.083522
1.4,27.7763,9.75905,9.75261,8.26463,-0.0145202,-0.190969,-0.0917447
1.5,29.711,10.4498,10.4896,8.77164,0.00294473,-0.204386,-0.11294
1.6,31.643,11.1299,11.2477,9.26553,0.0205459,-0.214434,-0.115105
1.7,33.5789,11.8137,12.019,9.74625,0.0392655,-0.226862,-0.108366
1.8,35.5158,12.4985,12.8005,10.2168,0.0541393,-0.234231,-0.105556
1.9,37.4176,13.1722,13.5658,10.6796,0.0693442,-0.242299,-0.107986
2.0,39.3209,13.8391,14.3361,11.1456,0.0961506,-0.251852,-0.104382
2.1,41.2414,14.5083,15.1228,11.6102,0.119066,-0.272119,-0.0905612
2.2,43.1324,15.1621,15.915,12.0553,0.143102,-0.296331,-0.078058
2.3,44.9992,15.834,16.6906,12.4747,0.177816,-0.334796,-0.0534614
2.4,46.8414,16.4993,17.4676,12.8746,0.20603,-0.366358,-0.0272145
2.5,48.6686,17.1543,18.2313,13.2831,0.248339,-0.408325,-0.00772908
2.6,50.4657,17.7983,19.0091,13.6583,0.283653,-0.442881,0.0144937
2.7,52.2228,18.4219,19.7954,14.0055,0.321308,-0.473797,0.0322578
2.8,54.0167,19.0555,20.596,14.3652,0.358778,-0.491779,0.0389433
2.9,55.7667,19.671,21.372,14.7237,0.3999,-0.513348,0.0401207
3.0,57.521,20.2856,22.1385,15.0968,0.432344,-0.540536,0.0366603
3.1,59.291,20.9057,22.9078,15.4775,0.460005,-0.570955,0.0191469
3.2,61.0682,21.51,23.6779,15.8802,0.490999,-0.592741,-0.00170093
3.3,62.8338,22.1177,24.4406,16.2755,0.509709,-0.620138,-0.0329072
3.4,64.596,22.7266,25.211,16.6583,0.538507,-0.633189,-0.0669736
3.5,66.3612,23.3363,25.977,17.048,0.560183,-0.642327,-0.0877726
3.6,68.0816,23.9476,26.7358,17.3982,0.570839,-0.625652,-0.0995036
3.7,69.7934,24.5507,27.4996,17.7431,0.597694,-0.606934,-0.110256
3.8,71.5034,25.1567,28.2714,18.0754,0.637698,-0.596512,-0.115549
3.9,73.2315,25.7957,29.0355,18.4002,0.666833,-0.585725,-0.125055
4.0,74.9576,26.4646,29.7986,18.6945,0.696079,-0.570699,-0.125675
4.1,76.6265,27.1204,30.5299,18.9762,0.71365,-0.555526,-0.125948
4.2,78.3265,27.7853,31.3058,19.2354,0.724753,-0.530081,-0.152197
4.3,80.0504,28.4648,32.099,19.4866,0.721235,-0.521733,-0.170301
4.4,81.7997,29.1361,32.9143,19.7493,0.715411,-0.525696,-0.154778
4.5,83.5194,29.8051,33.7233,19.9909,0.700007,-0.528024,-0.117867
4.6,85.24,30.4767,34.5193,20.244,0.693018,-0.55244,-0.0997923
4.7,86.9606,31.1498,35.3394,20.4714,0.684866,-0.595664,-0.0908772
4.8,88.702,31.8031,36.1622,20.7367,0.659289,-0.641473,-0.0875335
4.9,90.4953,32.4728,37.0211,21.0014,0.622349,-0.693087,-0.0869943
5.0,92.3227,33.1518,37.8918,21.2791,0.565965,-0.748306,-0.102158
5.1,94.1155,33.8361,38.7092,21.5703,0.512956,-0.803107,-0.110586
5.2,95.9559,34.5272,39.5671,21.8616,0.477469,-0.827963,-0.152446
5.3,97.8191,35.2173,40.4328,22.169,0.430337,-0.867511,-0.167549
5.4,99.6735,35.9214,41.2907,22.4614,0.376611,-0.924376,-0.190147
5.5,101.555,36.6474,42.1565,22.7514,0.329007,-0.985391,-0.218094
5.6,103.367,37.3518,43.011,23.0037,0.288588,-1.0449,-0.274658
5.7,105.1,38.0164,43.8357,23.2477,0.274134,-1.07606,-0.323747
5.8,106.82,38.7002,44.6298,23.4903,0.235924,-1.11516,-0.330499
5.9,108.509,39.3371,45.4162,23.7559,0.201756,-1.15583,-0.335481
6.0,110.31,39.9927,46.2782,24.0392,0.171763,-1.18357,-0.367916
6.1,112.094,40.6056,47.1703,24.3181,0.127168,-1.24495,-0.375334
6.2,113.869,41.2352,48.0831,24.5508,0.106428,-1.32479,-0.378678
6.3,115.652,41.8594,48.9756,24.8171,0.0294957,-1.41201,-0.38588
6.4,117.474,42.5425,49.8521,25.0798,-0.0156615,-1.47578,-0.382709
6.5,119.219,43.1916,50.7322,25.2952,-0.0297816,-1.51129,-0.350604
6.6,120.893,43.84,51.5572,25.4953,-0.0368746,-1.50256,-0.287075
6.7,122.546,44.4862,52.3675,25.6925,-0.0815443,-1.5021,-0.221502
6.8,124.29,45.1526,53.2355,25.9023,-0.133327,-1.52463,-0.154917
6.9,126.007,45.8024,54.0886,26.1157,-0.195464,-1.5819,-0.0917974
7.0,127.751,46.466,54.97,26.3153,-0.257932,-1.67187,-0.036811
7.1,129.577,47.155,55.896,26.5258,-0.314458,-1.74856,-0.00128957
7.2,131.312,47.8351,56.7766,26.7006,-0.346422,-1.79966,0.0416354
7.3,133.077,48.5191,57.7202,26.8372,-0.351436,-1.85918,0.139814
7.4,134.845,49.2463,58.6402,26.9589,-0.388729,-1.89725,0.229299
7.5,136.541,49.9003,59.5348,27.1055,-0.415432,-1.90452,0.311848
7.6,138.296,50.5951,60.4118,27.2893,-0.459177,-1.91183,0.39027
7.7,140.142,51.2816,61.3265,27.5345,-0.494158,-2.00232,0.441249
7.8,141.927,51.9769,62.248,27.702,-0.549557,-2.09974,0.52691
7.9,143.658,52.6761,63.159,27.8228,-0.647825,-2.21664,0.563437
8.0,145.42,53.3604,64.1021,27.957,-0.740511,-2.3373,0.561411
8.1,147.148,54.0027,65.0538,28.0913,-0.859291,-2.42496,0.485807
8.2,148.845,54.6555,65.9312,28.258,-0.993327,-2.43978,0.399022
8.3,150.62,55.3438,66.8565,28.4197,-1.04226,-2.44128,0.29978
8.4,152.39,56.0706,67.7764,28.5428,-1.10008,-2.47397,0.249502
8.5,153.952,56.642,68.5851,28.7245,-1.11048,-2.49575,0.307631
8.6,155.434,57.1008,69.4126,28.9207,-1.15833,-2.48947,0.311144
8.7,156.681,57.4072,70.1244,29.1493,-1.17236,-2.49259,0.242635
8.8,158.106,57.8615,70.8637,29.3808,-1.15975,-2.58227,0.251787
8.9,159.652,58.408,71.6376,29.6065,-1.17765,-2.63294,0.179368
9.0,160.91,58.8354,72.1138,29.9606,-1.29069,-2.65531,0.048562
9.1,162.501,59.3789,72.7757,30.3465,-1.37173,-2.53981,-0.105029
9.2,164.073,60.0229,73.5443,30.5059,-1.54891,-2.47212,-0.113658
9.3,165.732,60.7436,74.2182,30.7701,-1.72273,-2.47509,-0.0690471
9.4,167.395,61.3261,75.0477,31.0211,-1.8331,-2.53501,-0.0670764
9.5,169.142,61.9706,76.247,30.9248,-2.02719,-2.58729,-0.166345
9.6,170.818,62.4755,77.762,30.5806,-1.99328,-2.40714,-0.374922
9.7,172.524,62.8998,79.159,30.4656,-1.73718,-2.3919,-0.668358
9.8,173.977,63.0673,80.396,30.5132,-1.26031,-2.35103,-1.12235
9.9,175.331,63.2012,81.4235,30.7059,-1.4417,-2.62521,-1.21328
10.0,176.866,63.5672,83.2492,30.0491,-1.09238,-2.64215,-0.755777
