Time (ns),trace,xx,yy,zz,yx,zx,zy
0.0,0.0,0.0,0.0,0.0,0.0,0.0,0.0
0.1,2.06417,0.699224,0.698253,0.666693,0.000851036,-0.00662202,-0.00164037
0.2,4.06782,1.38992,1.37118,1.30672,-0.0059305,-0.0180648,-0.00841234
0.3,6.05476,2.09263,2.03684,1.9253,-0.0121175,-0.0314557,-0.0119006
0.4,8.0239,2.78391,2.71721,2.52278,-0.0198683,-0.0407506,-0.00505642
0.5,9.96608,3.46113,3.40894,3.09602,-0.0296863,-0.0482078,0.00941437
0.6,11.9104,4.13048,4.10386,3.67609,-0.0357792,-0.0573102,0.0253006
0.7,13.8595,4.80658,4.80679,4.24608,-0.0359837,-0.0607139,0.0404648
0.8,15.7924,5.47096,5.5293,4.79214,-0.0452134,-0.0619599,0.0495141
0.9,17.6933,6.13103,6.24448,5.31779,-0.053921,-0.0618315,0.0598013
1.0,19.5626,6.79221,6.94078,5.82958,-0.0596179,-0.0666181,0.0567265
1.1,21.4009,7.44496,7.63908,6.31682,-0.0723356,-0.0606419,0.0538468
1.2,23.2188,8.08853,8.33319,6.79712,-0.0879727,-0.0453498,0.0441344
1.3,25.0338,8.74294,9.031,7.25985,-0.0961545,-0.02707,0.0249933
1.4,26.8503,9.40404,9.73101,7.71521,-0.0974763,-0.0105988,0.000520655
1.5,28.6725,10.0789,10.4324,8.16124,-0.106371,0.00952354,-0.0249623
1.6,30.4826,10.7531,11.1404,8.58903,-0.112128,0.0222634,-0.058911
1.7,32.2816,11.4374,11.8441,9.00006,-0.120804,0.0220971,-0.097012
1.8,34.1025,12.135,12.551,9.41647,-0.138894,0.0153939,-0.127078
1.9,35.9084,12.8376,13.2523,9.81847,-0.161641,0.00821003,-0.150208
2.0,37.6789,13.5297,13.929,10.2202,-0.187641,-0.00410597,-0.172505
2.1,39.4504,14.2298,14.6046,10.616,-0.200166,-0.0182872,-0.183403
2.2,41.1887,14.9167,15.2831,10.9889,-0.21256,-0.0407376,-0.191236
2.3,42.9269,15.6176,15.9622,11.3472,-0.241259,-0.0634117,-0.199801
2.4,44.6481,16.3102,16.6437,11.6943,-0.252001,-0.100905,-0.200678
2.5,46.3622,16.9943,17.331,12.0368,-0.267334,-0.137014,-0.209054
2.6,48.048,17.6467,17.9953,12.406,-0.314783,-0.170001,-0.214452
2.7,49.7445,18.3117,18.6483,12.7845,-0.364632,-0.201165,-0.216173
2.8,51.4148,18.976,19.2763,13.1625,-0.409978,-0.230574,-0.228256
2.9,53.0972,19.6321,19.9254,13.5397,-0.461757,-0.267744,-0.247888
3.0,54.775,20.2761,20.5878,13.9112,-0.520025,-0.300589,-0.266023
3.1,56.4521,20.9308,21.2509,14.2704,-0.57788,-0.332776,-0.279002
3.2,58.0926,21.572,21.9027,14.6179,-0.634976,-0.370258,-0.291061
3.3,59.7328,22.2105,22.5356,14.9867,-0.688813,-0.393838,-0.30819
3.4,61.3683,22.8373,23.1923,15.3387,-0.737334,-0.414826,-0.33844
3.5,62.9466,23.4459,23.8243,15.6764,-0.76993,-0.456463,-0.380592
3.6,64.4976,24.0513,24.4378,16.0085,-0.807309,-0.508388,-0.436416
3.7,66.1061,24.6828,25.0826,16.3407,-0.848328,-0.564501,-0.490998
3.8,67.6944,25.3224,25.7169,16.6551,-0.895525,-0.639947,-0.545216
3.9,69.3022,25.9578,26.378,16.9663,-0.940092,-0.717602,-0.598848
4.0,70.9351,26.6082,27.0536,17.2732,-0.999784,-0.80452,-0.649296
4.1,72.5509,27.261,27.713,17.5768,-1.05912,-0.901924,-0.703746
4.2,74.1771,27.9015,28.3739,17.9017,-1.11946,-0.977629,-0.749884
4.3,75.8059,28.5326,29.05,18.2233,-1.16134,-1.05708,-0.780599
4.4,77.4326,29.156,29.7131,18.5634,-1.18768,-1.15372,-0.792051
4.5,79.0728,29.7869,30.4053,18.8806,-1.20417,-1.24675,-0.801309
4.6,80.6768,30.4221,31.0665,19.1882,-1.22144,-1.35267,-0.833567
4.7,82.2881,31.0671,31.7092,19.5119,-1.23404,-1.45336,-0.861485
4.8,83.9111,31.6883,32.3833,19.8396,-1.24252,-1.53745,-0.888749
4.9,85.5345,32.3287,33.0732,20.1325,-1.25111,-1.61248,-0.913104
5.0,87.1772,32.9986,33.764,20.4146,-1.23237,-1.67337,-0.938052
5.1,88.8029,33.6618,34.4322,20.709,-1.20758,-1.73969,-0.974755
5.2,90.4623,34.3355,35.1171,21.0097,-1.18853,-1.79626,-1.00476
5.3,92.127,35.0014,35.8104,21.3151,-1.14722,-1.84255,-1.05085
5.4,93.8055,35.6589,36.5323,21.6144,-1.12714,-1.90535,-1.08678
5.5,95.4665,36.3403,37.2237,21.9026,-1.09222,-1.97834,-1.12161
5.6,97.0984,36.9901,37.9096,22.1986,-1.06602,-2.05911,-1.17446
5.7,98.7488,37.6358,38.5973,22.5158,-1.01888,-2.16472,-1.21518
5.8,100.371,38.2776,39.2716,22.8221,-0.956331,-2.26864,-1.25016
5.9,102.023,38.9053,39.9799,23.1375,-0.916706,-2.36765,-1.28815
6.0,103.711,39.5331,40.7172,23.4607,-0.850485,-2.48669,-1.32697
6.1,105.356,40.1259,41.4609,23.7696,-0.8053,-2.58199,-1.34238
6.2,106.896,40.6674,42.1423,24.0862,-0.731785,-2.66005,-1.35847
6.3,108.44,41.2023,42.8141,24.4233,-0.668319,-2.75839,-1.36695
6.4,109.919,41.7121,43.479,24.7276,-0.607763,-2.8407,-1.39628
6.5,111.44,42.2208,44.1843,25.0346,-0.56363,-2.91808,-1.40961
6.6,112.907,42.6982,44.882,25.3266,-0.541726,-2.99096,-1.4262
6.7,114.276,43.1581,45.5122,25.6053,-0.491225,-3.06454,-1.4492
6.8,115.679,43.6245,46.1447,25.91,-0.425377,-3.14542,-1.47441
6.9,117.072,44.1221,46.7442,26.2058,-0.357501,-3.21588,-1.48603
7.0,118.553,44.6464,47.3968,26.5095,-0.280691,-3.26602,-1.51984
7.1,120.022,45.1752,48.0583,26.7882,-0.242073,-3.31538,-1.55898
7.2,121.43,45.6475,48.7527,27.03,-0.178998,-3.34705,-1.61964
7.3,122.862,46.0997,49.4978,27.264,-0.0760738,-3.38474,-1.66414
7.4,124.378,46.5984,50.2737,27.5063,-0.0229708,-3.43124,-1.69289
7.5,125.87,47.0746,51.0845,27.7108,-0.0022618,-3.45169,-1.71546
7.6,127.365,47.5549,51.8807,27.9293,-0.0203289,-3.4877,-1.72232
7.7,128.832,48.0217,52.6816,28.1291,-0.0814425,-3.56386,-1.73329
7.8,130.425,48.4818,53.5799,28.3636,-0.0895168,-3.60075,-1.71656
7.9,131.917,48.8906,54.4542,28.5723,-0.101459,-3.64675,-1.61187
8.0,133.386,49.3151,55.3109,28.76,-0.0944051,-3.6981,-1.54934
8.1,134.91,49.7609,56.2134,28.9355,-0.0416365,-3.72578,-1.53568
8.2,136.531,50.2607,57.1357,29.1344,-0.0344364,-3.71298,-1.56693
8.3,138.072,50.714,58.052,29.3061,0.0287424,-3.72722,-1.53918
8.4,139.614,51.1894,58.9244,29.5003,0.112388,-3.77641,-1.55903
8.5,141.237,51.6296,59.9116,29.6955,0.195576,-3.75173,-1.53862
8.6,142.869,51.998,60.8775,29.9933,0.25019,-3.74877,-1.5307
8.7,144.317,52.3621,61.6723,30.2827,0.264255,-3.69717,-1.50116
8.8,145.833,52.6906,62.5973,30.5455,0.210581,-3.65922,-1.44641
8.9,147.242,52.9625,63.5445,30.7347,0.165004,-3.57619,-1.36167
9.0,148.744,53.334,64.4832,30.9272,0.105622,-3.51035,-1.28077
9.1,149.905,53.6155,65.2386,31.0507,0.00518384,-3.36547,-1.25171
9.2,150.757,53.7016,65.9702,31.0852,-0.103415,-3.19172,-1.25649
9.3,152.0,53.7366,67.0302,31.2336,-0.276689,-3.0808,-1.20527
9.4,153.27,53.8772,67.9804,31.4123,-0.578641,-2.97934,-1.04283
9.5,154.857,54.2817,68.9535,31.6219,-1.03738,-2.86671,-0.935249
9.6,156.994,55.1157,70.0306,31.8478,-1.20606,-2.87705,-0.921885
9.7,158.902,55.8909,70.9085,32.1026,-1.29647,-2.84296,-0.740034
9.8,160.2,56.456,71.5228,32.2213,-1.28138,-3.0684,-0.746447
9.9,163.206,57.7734,72.9537,32.4791,-1.13492,-2.9911,-0.276299
10.0,164.603,58.228,73.7726,32.6021,-0.914048,-3.12706,-0.210495
