Time (ns),trace,xx,yy,zz,yx,zx,zy
0.0,0.0,0.0,0.0,0.0,0.0,0.0,0.0
0.1,2.02521,0.678006,0.677073,0.670135,0.000494524,-0.00486507,-0.010587
0.2,3.98994,1.34716,1.32279,1.31999,0.00902925,-0.0163494,-0.0234307
0.3,5.93225,2.0033,1.9803,1.94865,0.0130946,-0.0397679,-0.0291848
0.4,7.84755,2.65468,2.6284,2.56448,0.0109633,-0.0599287,-0.0401514
0.5,9.7376,3.29194,3.28281,3.16285,0.0113614,-0.0813762,-0.0431315
0.6,11.6031,3.92812,3.93179,3.74324,0.01806,-0.101811,-0.0426706
0.7,13.4479,4.56741,4.57046,4.31007,0.0238323,-0.126379,-0.0503228
0.8,15.3035,5.21706,5.20985,4.87663,0.0299495,-0.156166,-0.0451683
0.9,17.1453,5.86272,5.84391,5.43866,0.0417722,-0.179684,-0.0427218
1.0,18.9832,6.50197,6.47868,6.00258,0.0506381,-0.214922,-0.0343029
1.1,20.7966,7.14944,7.09777,6.54937,0.053876,-0.248172,-0.0266059
1.2,22.5773,7.79083,7.71162,7.07484,0.0476595,-0.27984,-0.0145157
1.3,24.334,8.44574,8.29555,7.59275,0.0347647,-0.307273,-0.00902741
1.4,26.0906,9.10566,8.88506,8.09991,0.0267857,-0.334695,0.00361835
1.5,27.8327,9.76425,9.47104,8.59745,0.0241345,-0.353883,0.0215806
1.6,29.5679,10.4254,10.0491,9.09335,0.0292242,-0.365342,0.046662
1.7,31.2859,11.0755,10.625,9.58544,0.0307597,-0.38327,0.0803192
1.8,33.0049,11.7309,11.1986,10.0753,0.0311719,-0.412119,0.108751
1.9,34.705,12.3764,11.7742,10.5543,0.0317024,-0.451096,0.147743
2.0,36.4012,13.0208,12.3532,11.0272,0.0336231,-0.479276,0.17217
2.1,38.1038,13.6704,12.9391,11.4943,0.0288253,-0.503003,0.19245
2.2,39.8141,14.349,13.5232,11.9418,0.0280814,-0.540285,0.217878
2.3,41.5349,15.0348,14.118,12.3821,0.0257845,-0.588397,0.240487
2.4,43.2506,15.7099,14.7123,12.8283,0.0226072,-0.641809,0.266098
2.5,44.9672,16.3968,15.3135,13.2569,0.0238283,-0.687419,0.278071
2.6,46.6856,17.0945,15.9107,13.6804,0.0209008,-0.728743,0.298581
2.7,48.3867,17.7806,16.5002,14.106,0.0171108,-0.771443,0.324411
2.8,50.0554,18.4688,17.0648,14.5218,0.0128679,-0.808182,0.351842
2.9,51.7303,19.1885,17.6234,14.9185,0.000416367,-0.844348,0.388374
3.0,53.4526,19.9263,18.2066,15.3197,-0.0199353,-0.87195,0.428024
3.1,55.1342,20.6442,18.7914,15.6985,-0.0396154,-0.90496,0.488795
3.2,56.8328,21.3721,19.3903,16.0704,-0.0497403,-0.922117,0.538564
3.3,58.5357,22.1002,19.9841,16.4515,-0.0551143,-0.951755,0.57981
3.4,60.2152,22.816,20.572,16.8272,-0.0455275,-0.990032,0.629706
3.5,61.915,23.548,21.1613,17.2057,-0.0270825,-1.00498,0.683
3.6,63.6318,24.2898,21.7482,17.5938,-0.0178762,-1.00274,0.729178
3.7,65.3235,25.04,22.312,17.9715,-0.00292664,-1.00746,0.785294
3.8,66.9993,25.7851,22.8782,18.336,0.0153578,-1.01524,0.863119
3.9,68.6538,26.5195,23.4536,18.6807,0.021705,-0.996144,0.954761
4.0,70.2773,27.2454,24.0263,19.0056,0.0340464,-0.98114,1.05288
4.1,71.8834,27.9743,24.5968,19.3123,0.0576867,-0.955891,1.13736
4.2,73.4518,28.7081,25.1553,19.5885,0.0861032,-0.921398,1.21271
4.3,75.0453,29.4319,25.73,19.8833,0.115404,-0.887133,1.28859
4.4,76.6227,30.1619,26.3015,20.1593,0.144533,-0.848116,1.36395
4.5,78.2117,30.8947,26.8815,20.4355,0.159516,-0.806714,1.42599
4.6,79.8148,31.6451,27.4743,20.6953,0.198234,-0.775687,1.48988
4.7,81.4196,32.4109,28.0917,20.917,0.231824,-0.752546,1.54755
4.8,82.9773,33.1613,28.7061,21.1098,0.261459,-0.729099,1.60581
4.9,84.5431,33.9165,29.3287,21.2979,0.277797,-0.668373,1.63909
5.0,86.0924,34.6561,29.9226,21.5136,0.294858,-0.607486,1.68654
5.1,87.6253,35.4005,30.5042,21.7206,0.321431,-0.574518,1.75175
5.2,89.1901,36.1548,31.1073,21.928,0.349252,-0.535095,1.81761
5.3,90.747,36.9386,31.702,22.1065,0.367071,-0.489717,1.87593
5.4,92.3215,37.7227,32.298,22.3008,0.38979,-0.478773,1.94941
5.5,93.9088,38.4903,32.9231,22.4954,0.403088,-0.483696,2.02523
5.6,95.572,39.2813,33.5685,22.7222,0.438606,-0.499679,2.11698
5.7,97.1522,40.0228,34.1909,22.9385,0.486039,-0.503316,2.20012
5.8,98.7384,40.7626,34.7824,23.1934,0.538075,-0.497275,2.29155
5.9,100.257,41.4917,35.3367,23.4281,0.583881,-0.470624,2.38755
6.0,101.749,42.2129,35.9005,23.6357,0.637652,-0.44989,2.50328
6.1,103.224,42.9342,36.4716,23.8186,0.702574,-0.424687,2.65687
6.2,104.612,43.6478,36.9748,23.9894,0.7755,-0.398803,2.79271
6.3,106.004,44.4088,37.4172,24.1779,0.807159,-0.359983,2.94747
6.4,107.409,45.1391,37.885,24.385,0.837579,-0.320372,3.09547
6.5,108.823,45.8443,38.4008,24.5775,0.913983,-0.269306,3.24891
6.6,110.208,46.5305,38.9051,24.772,0.977915,-0.21674,3.40126
6.7,111.533,47.2031,39.3719,24.9579,1.05577,-0.215833,3.55785
6.8,112.832,47.8373,39.8198,25.1752,1.13569,-0.228989,3.72213
6.9,114.16,48.4892,40.2793,25.3914,1.2232,-0.259235,3.8842
7.0,115.507,49.1177,40.8058,25.5837,1.34325,-0.257252,4.0569
7.1,116.832,49.6937,41.326,25.8126,1.49504,-0.231645,4.21876
7.2,118.085,50.2633,41.8018,26.0195,1.66223,-0.20172,4.39449
7.3,119.303,50.7983,42.2563,26.248,1.83346,-0.160024,4.56561
7.4,120.505,51.3238,42.7224,26.4587,1.99785,-0.12592,4.73841
7.5,121.698,51.8512,43.2053,26.6415,2.12557,-0.040339,4.86793
7.6,122.94,52.3943,43.7275,26.8181,2.19078,0.016913,5.00291
7.7,124.234,52.9479,44.2697,27.0168,2.29096,0.0996893,5.11392
7.8,125.474,53.4696,44.8016,27.2024,2.35925,0.155217,5.18085
7.9,126.56,53.935,45.307,27.3184,2.40976,0.186237,5.22694
8.0,127.716,54.3363,45.8741,27.506,2.44324,0.206242,5.31485
8.1,129.051,54.8321,46.5425,27.6761,2.51213,0.235129,5.40126
8.2,130.291,55.2959,47.1457,27.8499,2.60533,0.262904,5.53869
8.3,131.352,55.6202,47.7835,27.9484,2.58854,0.289072,5.6279
8.4,132.455,55.975,48.4286,28.0512,2.56975,0.314264,5.71502
8.5,133.594,56.3723,49.0662,28.1551,2.56332,0.403217,5.82428
8.6,134.597,56.7502,49.6701,28.1766,2.58858,0.496789,5.96364
8.7,135.633,57.1031,50.2772,28.2525,2.52986,0.603153,6.00803
8.8,136.713,57.4634,50.8714,28.3779,2.47901,0.670747,5.99229
8.9,137.755,57.8045,51.5628,28.3879,2.34494,0.741009,5.97464
9.0,138.875,58.1597,52.1837,28.5318,2.13234,0.787185,6.02728
9.1,140.06,58.502,52.9679,28.5904,2.04605,0.806958,6.00858
9.2,141.316,58.8273,53.7837,28.7045,2.0163,0.850724,5.86558
9.3,142.523,59.0359,54.6462,28.841,2.06247,0.946118,5.79516
9.4,143.962,59.4075,55.4444,29.1104,1.9375,0.783473,5.73723
9.5,145.265,59.5196,56.3094,29.4358,1.79221,0.582751,5.81953
9.6,146.955,60.0455,57.198,29.7109,1.59628,0.353691,6.01966
9.7,148.415,60.8123,57.802,29.8007,1.74014,0.135455,5.93374
9.8,150.333,62.0495,58.4895,29.7937,1.87723,-0.352411,5.87993
9.9,152.161,63.0698,59.2447,29.846,1.62692,-0.878048,5.79626
10.0,154.865,64.254,60.4114,30.1993,1.9182,-1.384,5.83551
