Time (ns),trace,xx,yy,zz,yx,zx,zy
0.0,0.0,0.0,0.0,0.0,0.0,0.0,0.0
0.1,2.03662,0.683397,0.689981,0.663241,0.00791306,-0.00356172,-0.00296529
0.2,4.00678,1.36174,1.35258,1.29245,0.0137851,0.0048379,-0.00413233
0.3,5.9555,2.04028,2.00664,1.90857,0.0233077,0.0214969,-0.00125956
0.4,7.864,2.70992,2.65129,2.50278,0.0349321,0.0463394,-0.00515798
0.5,9.71984,3.36786,3.28141,3.07057,0.0451043,0.0679723,-0.00645139
0.6,11.5514,4.02668,3.90325,3.62151,0.0680085,0.0856155,-0.0175044
0.7,13.3901,4.69759,4.52603,4.16651,0.0910271,0.105085,-0.0261139
0.8,15.2054,5.35966,5.14601,4.69971,0.123119,0.121164,-0.0461496
0.9,17.0331,6.03585,5.77002,5.22723,0.153719,0.140402,-0.0685484
1.0,18.8745,6.71753,6.39231,5.76468,0.184221,0.162943,-0.0959383
1.1,20.6742,7.38138,7.01862,6.27421,0.213544,0.199285,-0.12973
1.2,22.4455,8.04119,7.63771,6.76659,0.239059,0.24221,-0.155975
1.3,24.1975,8.69297,8.25768,7.24686,0.265389,0.28531,-0.186519
1.4,25.9555,9.35063,8.87663,7.72819,0.295438,0.334727,-0.214222
1.5,27.7217,10.0093,9.49931,8.21308,0.335782,0.380447,-0.248056
1.6,29.5035,10.6813,10.1157,8.7065,0.377785,0.429682,-0.29303
1.7,31.2574,11.342,10.7324,9.18303,0.415183,0.4726,-0.333522
1.8,33.014,12.0147,11.341,9.65824,0.454399,0.51898,-0.380893
1.9,34.7988,12.7065,11.9646,10.1277,0.480799,0.553193,-0.422692
2.0,36.5611,13.3746,12.595,10.5916,0.504762,0.58748,-0.457598
2.1,38.3145,14.0396,13.2288,11.0462,0.535694,0.627136,-0.502692
2.2,40.1021,14.7229,13.8742,11.505,0.572172,0.671779,-0.546658
2.3,41.8893,15.4221,14.5197,11.9475,0.610272,0.715202,-0.58851
2.4,43.6998,16.1413,15.1642,12.3944,0.651945,0.767415,-0.637528
2.5,45.4983,16.8548,15.8077,12.8359,0.696468,0.822182,-0.681705
2.6,47.3019,17.5732,16.4462,13.2825,0.736507,0.886437,-0.729592
2.7,49.0977,18.2842,17.0893,13.7242,0.758957,0.961756,-0.765775
2.8,50.8786,18.9868,17.7394,14.1524,0.767529,1.04615,-0.803818
2.9,52.6321,19.6826,18.3743,14.5752,0.785884,1.12366,-0.843203
3.0,54.3959,20.3851,19.0254,14.9853,0.806662,1.19444,-0.868935
3.1,56.1705,21.0972,19.6751,15.3983,0.823768,1.26908,-0.888591
3.2,57.9486,21.7905,20.3381,15.82,0.826697,1.35145,-0.906212
3.3,59.7011,22.4777,20.9922,16.2312,0.815409,1.44178,-0.927106
3.4,61.4271,23.1557,21.6513,16.62,0.800957,1.53106,-0.952358
3.5,63.1688,23.8606,22.2836,17.0247,0.780874,1.60667,-0.962415
3.6,64.879,24.5728,22.8928,17.4134,0.760902,1.66459,-0.963963
3.7,66.5917,25.2654,23.5133,17.813,0.752162,1.72234,-0.966756
3.8,68.3404,25.9553,24.1695,18.2156,0.756765,1.78161,-0.965903
3.9,70.0467,26.656,24.8085,18.5822,0.770825,1.82979,-0.961529
4.0,71.7381,27.3536,25.4044,18.9801,0.78574,1.88772,-0.9556
4.1,73.4259,28.0762,25.9837,19.366,0.790129,1.93008,-0.947842
4.2,75.1191,28.7826,26.5711,19.7655,0.795029,1.9679,-0.949147
4.3,76.7877,29.4731,27.1686,20.146,0.818219,2.01117,-0.949866
4.4,78.4394,30.1487,27.7884,20.5022,0.833342,2.05623,-0.946977
4.5,80.0343,30.7946,28.3729,20.8668,0.847725,2.11984,-0.941574
4.6,81.6441,31.4537,28.9701,21.2203,0.857027,2.18744,-0.924106
4.7,83.2767,32.1206,29.578,21.5782,0.869251,2.25723,-0.918199
4.8,84.9078,32.793,30.1788,21.936,0.878597,2.32041,-0.892424
4.9,86.5404,33.4814,30.7703,22.2887,0.875939,2.39099,-0.867948
5.0,88.1584,34.1452,31.3792,22.634,0.865629,2.47053,-0.849194
5.1,89.7805,34.7933,31.9929,22.9942,0.843568,2.53045,-0.853486
5.2,91.417,35.472,32.6131,23.3319,0.811231,2.60232,-0.840962
5.3,93.0534,36.1503,33.2414,23.6617,0.788218,2.66233,-0.852016
5.4,94.6983,36.8664,33.852,23.9799,0.768082,2.71339,-0.868598
5.5,96.3364,37.5883,34.442,24.3061,0.750637,2.75388,-0.87152
5.6,97.948,38.2943,35.016,24.6377,0.723527,2.79408,-0.863432
5.7,99.5736,38.9971,35.6101,24.9664,0.700133,2.837,-0.873505
5.8,101.197,39.6749,36.2371,25.2853,0.669856,2.85636,-0.902976
5.9,102.775,40.3685,36.8266,25.5799,0.61213,2.84894,-0.938754
6.0,104.413,41.0874,37.4429,25.8829,0.545783,2.86521,-0.971167
6.1,106.109,41.853,38.0891,26.1668,0.464081,2.8595,-1.04108
6.2,107.784,42.6195,38.7105,26.4535,0.405772,2.86493,-1.07067
6.3,109.422,43.4062,39.304,26.7123,0.35942,2.87104,-1.05934
6.4,110.992,44.1408,39.9024,26.9485,0.314439,2.90343,-1.0405
6.5,112.569,44.903,40.5129,27.1532,0.283412,2.93108,-1.01728
6.6,114.141,45.6522,41.1262,27.3625,0.232884,2.95109,-0.981677
6.7,115.756,46.4113,41.757,27.5877,0.212303,2.96882,-0.926975
6.8,117.373,47.2119,42.3738,27.7869,0.198298,2.9733,-0.87808
6.9,118.958,47.9974,42.9435,28.0168,0.178331,2.99151,-0.86163
7.0,120.494,48.7357,43.5258,28.2322,0.164035,2.97726,-0.837263
7.1,122.064,49.4543,44.1557,28.4536,0.157997,2.96144,-0.804266
7.2,123.649,50.1579,44.844,28.6474,0.160257,2.96055,-0.746708
7.3,125.321,50.8869,45.5506,28.8833,0.165153,2.99402,-0.664209
7.4,126.966,51.5618,46.3167,29.0873,0.174159,3.01806,-0.61499
7.5,128.664,52.231,47.1017,29.3309,0.244584,2.98593,-0.60603
7.6,130.432,52.8941,47.9042,29.634,0.300045,2.97889,-0.632991
7.7,132.179,53.5192,48.7523,29.9074,0.381085,2.96985,-0.64486
7.8,133.929,54.1557,49.5956,30.1777,0.485001,2.93142,-0.605193
7.9,135.626,54.7543,50.4186,30.4533,0.57833,2.86901,-0.605463
8.0,137.42,55.3226,51.3561,30.7417,0.601634,2.76411,-0.604497
8.1,139.173,55.9059,52.3005,30.9664,0.610113,2.64707,-0.570741
8.2,140.824,56.4931,53.1413,31.1897,0.633135,2.52572,-0.589196
8.3,142.544,57.0388,54.1217,31.3837,0.642421,2.43197,-0.631926
8.4,144.308,57.6516,55.0725,31.5843,0.57327,2.43435,-0.676451
8.5,146.212,58.313,56.0945,31.8045,0.511339,2.40405,-0.696351
8.6,148.171,59.103,57.0811,31.987,0.465086,2.44304,-0.69865
8.7,150.135,59.9821,57.981,32.1724,0.428634,2.43773,-0.725349
8.8,152.143,60.8512,58.8237,32.4678,0.414676,2.44915,-0.779242
8.9,154.143,61.7497,59.6171,32.7765,0.499163,2.43744,-0.793807
9.0,156.223,62.7059,60.3787,33.138,0.620707,2.40153,-0.852114
9.1,158.518,63.7712,61.0974,33.6494,0.74598,2.49866,-0.984761
9.2,160.655,64.7375,61.8889,34.0283,0.777339,2.53255,-1.02096
9.3,162.543,65.661,62.6376,34.2441,0.668939,2.5147,-1.16504
9.4,164.167,66.4906,63.2615,34.415,0.459972,2.63464,-1.35451
9.5,165.578,67.1827,63.9194,34.4758,0.200339,2.69545,-1.61061
9.6,167.024,67.7862,64.432,34.8059,-0.190746,2.67961,-1.66871
9.7,168.61,68.7718,64.9119,34.9268,-0.488253,2.72949,-1.58749
9.8,169.792,69.2934,65.3246,35.1736,-0.708066,2.84258,-1.6061
9.9,169.913,69.3465,65.4693,35.0966,-1.01782,2.97108,-1.31217
10.0,169.225,69.2262,64.8367,35.1618,-1.19567,3.0606,-1.05532
