Time (ns),trace,xx,yy,zz,yx,zx,zy
0.0,0.0,0.0,0.0,0.0,0.0,0.0,0.0
0.1,2.07495,0.697899,0.701952,0.675101,-0.00339757,0.00162202,0.0049195
0.2,4.10824,1.39319,1.40761,1.30744,-0.0120085,-0.00372817,0.0167101
0.3,6.12773,2.08584,2.10581,1.93608,-0.0341667,-0.0101821,0.0271509
0.4,8.12016,2.76791,2.80571,2.54653,-0.0658366,-0.018918,0.0391337
0.5,10.0906,3.43706,3.51006,3.14348,-0.0994478,-0.0294721,0.0536353
0.6,12.0605,4.11694,4.21844,3.72512,-0.138105,-0.0389458,0.0682378
0.7,14.029,4.79762,4.93172,4.29969,-0.175351,-0.0465316,0.0763793
0.8,15.9745,5.46917,5.63581,4.86951,-0.195085,-0.0644063,0.0848223
0.9,17.8967,6.14452,6.31445,5.43777,-0.214005,-0.0827882,0.0945376
1.0,19.8256,6.82411,7.00037,6.00115,-0.235128,-0.0931084,0.107122
1.1,21.7429,7.5108,7.68048,6.55164,-0.250978,-0.103001,0.128209
1.2,23.6705,8.2009,8.37263,7.09698,-0.270016,-0.112458,0.151212
1.3,25.572,8.87854,9.07489,7.61857,-0.280447,-0.130876,0.175785
1.4,27.4818,9.5604,9.78082,8.14058,-0.29434,-0.146566,0.199433
1.5,29.3876,10.2513,10.4847,8.65155,-0.304506,-0.170467,0.216898
1.6,31.2995,10.9563,11.1795,9.16369,-0.30103,-0.198198,0.233678
1.7,33.1977,11.6447,11.8856,9.66741,-0.290199,-0.22509,0.250847
1.8,35.0833,12.3262,12.5933,10.1637,-0.291548,-0.253628,0.268882
1.9,36.9358,13.0074,13.2971,10.6313,-0.287341,-0.288233,0.273073
2.0,38.7661,13.678,13.9977,11.0903,-0.279196,-0.321223,0.287751
2.1,40.5934,14.3362,14.7166,11.5405,-0.283985,-0.347351,0.315418
2.2,42.3964,14.9999,15.4296,11.967,-0.301577,-0.366372,0.34141
2.3,44.198,15.6569,16.1383,12.4028,-0.317585,-0.38276,0.360134
2.4,46.009,16.3244,16.839,12.8457,-0.350237,-0.408342,0.371538
2.5,47.8086,17.0051,17.5308,13.2728,-0.387341,-0.42979,0.380001
2.6,49.6242,17.6877,18.2322,13.7043,-0.440247,-0.434105,0.39965
2.7,51.4084,18.3613,18.9269,14.1203,-0.512924,-0.424233,0.411497
2.8,53.1727,19.0344,19.627,14.5113,-0.60083,-0.405952,0.413992
2.9,54.9517,19.7371,20.3213,14.8932,-0.68638,-0.390345,0.397804
3.0,56.7132,20.4205,21.017,15.2757,-0.784155,-0.3874,0.387738
3.1,58.4797,21.1001,21.7247,15.6549,-0.883228,-0.391575,0.385357
3.2,60.2692,21.7882,22.4401,16.041,-0.971933,-0.392065,0.381878
3.3,62.0576,22.4788,23.1612,16.4176,-1.06219,-0.385742,0.367807
3.4,63.8047,23.1586,23.878,16.7681,-1.15354,-0.388095,0.36301
3.5,65.52,23.8454,24.5709,17.1037,-1.234,-0.407888,0.35132
3.6,67.2474,24.5183,25.2754,17.4537,-1.30069,-0.428177,0.336473
3.7,69.0016,25.188,26.0028,17.8108,-1.36542,-0.44422,0.317546
3.8,70.7489,25.8382,26.7488,18.1619,-1.43389,-0.466513,0.280855
3.9,72.5017,26.497,27.4973,18.5075,-1.5023,-0.492927,0.233519
4.0,74.2314,27.1408,28.2282,18.8625,-1.57061,-0.514046,0.191682
4.1,75.9596,27.7652,28.9732,19.2212,-1.6452,-0.538449,0.156133
4.2,77.7079,28.3843,29.7085,19.615,-1.716,-0.555615,0.100652
4.3,79.4394,28.9991,30.4304,20.0099,-1.78353,-0.573172,0.0336114
4.4,81.1509,29.5726,31.1864,20.3919,-1.83953,-0.598879,-0.0382224
4.5,82.8606,30.1404,31.9259,20.7942,-1.89671,-0.618469,-0.103525
4.6,84.6266,30.7359,32.6925,21.1982,-1.9491,-0.627787,-0.184459
4.7,86.3688,31.3296,33.4454,21.5937,-2.01188,-0.639732,-0.249936
4.8,88.1043,31.9204,34.2062,21.9777,-2.04576,-0.66294,-0.296946
4.9,89.8568,32.4982,34.9859,22.3727,-2.09908,-0.695515,-0.328849
5.0,91.5844,33.0613,35.7597,22.7634,-2.15927,-0.74255,-0.340386
5.1,93.3148,33.6343,36.5202,23.1603,-2.21269,-0.774994,-0.355676
5.2,95.0074,34.203,37.2976,23.5067,-2.27924,-0.833755,-0.345455
5.3,96.6901,34.7522,38.0991,23.8388,-2.33321,-0.872148,-0.327086
5.4,98.3633,35.3087,38.8966,24.158,-2.39113,-0.921478,-0.303255
5.5,100.025,35.8399,39.6736,24.5112,-2.43595,-0.964526,-0.275398
5.6,101.698,36.3766,40.4717,24.8501,-2.47304,-1.00235,-0.235121
5.7,103.352,36.8811,41.2861,25.1848,-2.49796,-1.0234,-0.20596
5.8,105.001,37.3946,42.092,25.5147,-2.54293,-1.05327,-0.162229
5.9,106.667,37.8782,42.8968,25.8923,-2.58594,-1.04672,-0.135766
6.0,108.32,38.3907,43.6855,26.2443,-2.64663,-1.05197,-0.109113
6.1,109.96,38.8952,44.4748,26.5899,-2.72531,-1.04181,-0.0633884
6.2,111.605,39.4367,45.2566,26.9121,-2.82752,-1.02597,-0.000746495
6.3,113.226,39.9716,46.0089,27.2453,-2.92966,-1.03279,0.04198
6.4,114.852,40.5196,46.8207,27.5113,-3.02894,-1.05086,0.100732
6.5,116.419,41.0586,47.6304,27.7304,-3.15168,-1.05562,0.173911
6.6,117.95,41.6195,48.4061,27.9244,-3.26891,-1.04287,0.222146
6.7,119.475,42.2015,49.1706,28.1033,-3.34449,-1.02954,0.257039
6.8,120.993,42.766,49.8894,28.3379,-3.37961,-0.960488,0.271877
6.9,122.492,43.3208,50.5977,28.5738,-3.42713,-0.884932,0.30212
7.0,123.998,43.8967,51.2983,28.803,-3.48503,-0.797003,0.315851
7.1,125.484,44.4603,52.0655,28.9581,-3.52441,-0.719588,0.330126
7.2,126.909,45.0212,52.8076,29.0803,-3.58263,-0.648635,0.32175
7.3,128.333,45.5634,53.5473,29.222,-3.64654,-0.582849,0.339118
7.4,129.708,46.0717,54.2887,29.3478,-3.63943,-0.52272,0.335006
7.5,131.017,46.5771,54.9984,29.4418,-3.60932,-0.490649,0.373307
7.6,132.321,47.0643,55.7283,29.528,-3.60642,-0.428577,0.405871
7.7,133.642,47.5663,56.4491,29.6264,-3.66086,-0.41401,0.453504
7.8,134.918,48.0856,57.1173,29.7149,-3.74542,-0.37659,0.501471
7.9,136.277,48.6483,57.7888,29.8401,-3.81086,-0.327954,0.580423
8.0,137.715,49.2469,58.4834,29.9842,-3.85634,-0.311721,0.675265
8.1,139.189,49.857,59.2296,30.1019,-3.89968,-0.301794,0.747854
8.2,140.697,50.4566,59.9825,30.2582,-3.90025,-0.26847,0.861279
8.3,142.309,51.1421,60.7399,30.4267,-3.9013,-0.222155,0.924822
8.4,143.777,51.6935,61.4618,30.6222,-3.90308,-0.153819,1.01719
8.5,145.234,52.2499,62.1486,30.8356,-3.81938,-0.151495,1.04164
8.6,146.642,52.8446,62.6866,31.1106,-3.72476,-0.165215,1.09792
8.7,148.202,53.5065,63.351,31.3446,-3.66357,-0.176585,1.12411
8.8,149.557,54.0594,63.9754,31.5223,-3.46655,-0.159007,1.11755
8.9,150.892,54.6025,64.6456,31.6438,-3.31457,-0.210959,1.04483
9.0,152.062,55.0984,65.1762,31.7876,-3.13457,-0.297449,0.933398
9.1,153.426,55.5656,65.9246,31.9357,-2.88007,-0.410537,0.843167
9.2,154.822,56.1005,66.5858,32.1359,-2.54186,-0.447552,0.675352
9.3,156.211,56.6236,67.2789,32.3083,-2.25814,-0.539212,0.647283
9.4,157.61,57.3647,67.6871,32.5581,-2.00804,-0.786508,0.648174
9.5,159.257,58.2386,68.4025,32.6161,-1.90387,-0.915313,0.664733
9.6,160.496,58.9614,68.8622,32.6728,-1.68404,-1.17766,0.629402
9.7,161.335,59.4424,69.2782,32.6146,-1.49264,-1.31378,0.641227
9.8,162.482,59.8572,70.0508,32.5739,-1.37107,-1.26477,0.491777
9.9,163.554,60.0696,70.8032,32.681,-1.47171,-1.1064,0.904668
10.0,164.802,60.44,71.1854,33.1763,-1.68304,-0.591675,0.861646
