Time (ns),trace,xx,yy,zz,yx,zx,zy
0.0,0.0,0.0,0.0,0.0,0.0,0.0,0.0
0.1,2.07571,0.700748,0.698232,0.676727,0.0029083,-0.00768495,-0.00988994
0.2,4.0933,1.38594,1.38651,1.32085,0.0121616,-0.00631981,-0.0229894
0.3,6.08435,2.05809,2.07466,1.9516,0.023504,-0.0001837,-0.0440971
0.4,8.05659,2.73042,2.75949,2.56668,0.033018,0.00506269,-0.0673907
0.5,10.0224,3.38654,3.45862,3.17722,0.0473065,0.0166781,-0.0942235
0.6,11.9456,4.02569,4.16444,3.7555,0.0630703,0.0279068,-0.120912
0.7,13.8577,4.66829,4.86497,4.32441,0.066378,0.028506,-0.146216
0.8,15.755,5.32683,5.56592,4.86224,0.065784,0.0320609,-0.18374
0.9,17.6334,5.97583,6.27729,5.38025,0.0713081,0.0345359,-0.206293
1.0,19.4992,6.62139,6.98937,5.88843,0.0796397,0.0340871,-0.225007
1.1,21.355,7.26448,7.70791,6.38257,0.0936336,0.0271668,-0.235958
1.2,23.19,7.88813,8.42319,6.87869,0.108456,0.0316096,-0.251025
1.3,25.0263,8.51727,9.14025,7.36873,0.131761,0.043626,-0.266961
1.4,26.829,9.13926,9.84424,7.84546,0.161284,0.0458091,-0.290029
1.5,28.6014,9.75432,10.5298,8.31723,0.194651,0.0388144,-0.304146
1.6,30.3753,10.3753,11.2263,8.77371,0.231003,0.0293492,-0.319411
1.7,32.1899,11.0206,11.9317,9.23765,0.272867,0.0176331,-0.334123
1.8,34.0176,11.681,12.6478,9.68886,0.311947,0.0131551,-0.355484
1.9,35.8483,12.3367,13.3697,10.1419,0.350211,0.0215273,-0.37928
2.0,37.6413,12.9843,14.0857,10.5713,0.396905,0.0336173,-0.412209
2.1,39.4356,13.6381,14.7868,11.0106,0.443592,0.0514626,-0.447488
2.2,41.2126,14.296,15.475,11.4416,0.505361,0.064864,-0.484761
2.3,43.0057,14.9589,16.1766,11.8701,0.561237,0.0744316,-0.52272
2.4,44.8024,15.6241,16.8855,12.2928,0.626917,0.0859204,-0.557356
2.5,46.5836,16.2839,17.5991,12.7007,0.69912,0.0933761,-0.586828
2.6,48.3671,16.9469,18.3064,13.1137,0.781146,0.0868926,-0.618548
2.7,50.171,17.6167,19.0267,13.5277,0.859775,0.0889998,-0.629805
2.8,51.9834,18.2988,19.7555,13.9291,0.926065,0.0888442,-0.641852
2.9,53.8191,18.9968,20.5066,14.3157,1.00313,0.0991347,-0.659719
3.0,55.6567,19.6941,21.2563,14.7064,1.07398,0.100833,-0.685768
3.1,57.4745,20.3815,21.996,15.097,1.14709,0.101088,-0.706294
3.2,59.2978,21.0692,22.7374,15.4913,1.23096,0.101409,-0.726505
3.3,61.1022,21.7719,23.4456,15.8847,1.32788,0.0914745,-0.744522
3.4,62.9025,22.4822,24.1592,16.2611,1.43352,0.0854829,-0.763219
3.5,64.6792,23.1869,24.8601,16.6322,1.52837,0.0910776,-0.781813
3.6,66.4685,23.8948,25.5663,17.0074,1.61053,0.0912806,-0.81199
3.7,68.2393,24.5922,26.2735,17.3736,1.70995,0.103202,-0.833745
3.8,69.9792,25.27,27.0017,17.7075,1.80808,0.099932,-0.858024
3.9,71.724,25.9318,27.755,18.0373,1.89859,0.100415,-0.881336
4.0,73.4458,26.6001,28.4821,18.3635,1.99172,0.115641,-0.909942
4.1,75.1766,27.269,29.2148,18.6928,2.09764,0.115764,-0.951965
4.2,76.8915,27.958,29.9305,19.003,2.20484,0.0934664,-0.993833
4.3,78.5412,28.6317,30.6147,19.2948,2.28964,0.0747822,-1.01153
4.4,80.1557,29.2853,31.2891,19.5813,2.35334,0.0509203,-1.04975
4.5,81.8032,29.9702,31.9814,19.8516,2.41821,0.0267074,-1.1003
4.6,83.4055,30.615,32.6774,20.113,2.47579,0.00467178,-1.12905
4.7,85.0131,31.2538,33.3812,20.3782,2.51021,0.0207401,-1.15802
4.8,86.6452,31.8999,34.0971,20.6482,2.53962,0.0197544,-1.21235
4.9,88.2711,32.546,34.8135,20.9117,2.56529,0.024774,-1.26589
5.0,89.861,33.185,35.495,21.181,2.5724,0.0394848,-1.31408
5.1,91.4351,33.8246,36.1647,21.4457,2.57369,0.0669422,-1.35406
5.2,92.9977,34.4789,36.815,21.7038,2.58281,0.0854343,-1.40278
5.3,94.5238,35.122,37.4595,21.9423,2.63332,0.0865213,-1.46104
5.4,96.009,35.7158,38.1013,22.1919,2.669,0.102721,-1.54388
5.5,97.531,36.3468,38.7421,22.4421,2.70807,0.14739,-1.62583
5.6,98.9912,36.9485,39.3798,22.6629,2.72688,0.160422,-1.70177
5.7,100.404,37.5267,39.9756,22.9015,2.76108,0.164199,-1.75971
5.8,101.842,38.1366,40.5517,23.1537,2.79685,0.1791,-1.79167
5.9,103.303,38.7447,41.1395,23.4187,2.82569,0.187813,-1.82146
6.0,104.824,39.344,41.7752,23.705,2.8835,0.16485,-1.8606
6.1,106.339,39.9465,42.4091,23.9835,2.90723,0.182922,-1.89477
6.2,107.819,40.5923,43.0465,24.1807,2.96234,0.2038,-1.91977
6.3,109.24,41.2091,43.7226,24.3077,2.98607,0.173707,-1.95793
6.4,110.618,41.777,44.3986,24.4421,3.02455,0.12742,-1.974
6.5,112.02,42.3818,45.0801,24.5579,3.06455,0.0973573,-1.97718
6.6,113.381,42.972,45.7578,24.651,3.07891,0.0400344,-1.99374
6.7,114.787,43.5995,46.4417,24.746,3.13673,0.0399433,-2.00987
6.8,116.295,44.2525,47.1785,24.864,3.19607,0.0439858,-2.02349
6.9,117.814,44.918,47.9411,24.9547,3.26676,0.0352538,-2.04051
7.0,119.301,45.5698,48.6953,25.0356,3.3466,0.00565784,-2.06647
7.1,120.694,46.1752,49.4382,25.0807,3.41283,-0.0485372,-2.07755
7.2,122.163,46.8516,50.1688,25.1422,3.49222,-0.0845245,-2.09205
7.3,123.566,47.4849,50.9316,25.1493,3.53991,-0.0946086,-2.05512
7.4,125.073,48.1176,51.7615,25.1941,3.61243,-0.0922383,-2.01779
7.5,126.566,48.748,52.5762,25.2414,3.72622,-0.0740223,-1.95302
7.6,128.007,49.3308,53.4095,25.2664,3.86467,-0.033297,-1.86929
7.7,129.354,49.8511,54.1858,25.3176,4.01181,0.0668426,-1.77759
7.8,130.674,50.4104,54.9061,25.3571,4.16606,0.164152,-1.6832
7.9,132.123,51.037,55.648,25.4382,4.31544,0.289756,-1.55766
8.0,133.455,51.5565,56.3908,25.5072,4.40075,0.457076,-1.47461
8.1,134.807,52.0752,57.1679,25.5635,4.50504,0.541811,-1.35368
8.2,136.125,52.6751,57.9304,25.5191,4.59741,0.636106,-1.23867
8.3,137.439,53.2758,58.668,25.4947,4.72489,0.721563,-1.04232
8.4,138.764,53.8358,59.421,25.5075,4.86517,0.796379,-0.863681
8.5,140.05,54.2893,60.275,25.4854,5.04003,0.85691,-0.673771
8.6,141.437,54.7246,61.2606,25.4516,5.22091,0.896032,-0.499212
8.7,142.723,55.0543,62.1885,25.4806,5.40639,0.995517,-0.285722
8.8,144.054,55.3963,63.2107,25.4469,5.64419,1.05572,-0.125825
8.9,145.276,55.7304,64.0486,25.4972,5.7839,1.07889,0.00240458
9.0,146.558,56.0993,64.902,25.5567,5.94127,1.17363,0.162155
9.1,147.97,56.5424,65.7709,25.6571,6.02603,1.21063,0.314658
9.2,149.313,56.8813,66.4795,25.9519,6.08686,1.31451,0.346423
9.3,150.577,57.1412,67.2879,26.1483,6.03293,1.43016,0.389012
9.4,152.01,57.5634,68.1971,26.2498,5.89677,1.53825,0.440323
9.5,153.041,57.8168,69.0207,26.2036,5.73237,1.59936,0.333063
9.6,154.278,58.1089,69.8095,26.36,5.60092,1.66598,0.157262
9.7,155.238,58.0936,70.5906,26.5538,5.40791,1.78147,-0.225842
9.8,156.015,58.1158,71.3899,26.5097,5.42548,2.0431,-0.554343
9.9,157.201,58.216,72.0087,26.9768,5.2103,2.04946,-1.22901
10.0,157.393,58.3464,72.6511,26.3952,5.20276,1.80148,-1.72481
