Time (ns),trace,xx,yy,zz,yx,zx,zy
0.0,0.0,0.0,0.0,0.0,0.0,0.0,0.0
0.1,2.02293,0.683587,0.687046,0.652292,0.00834883,-0.00839769,-0.000443331
0.2,3.99016,1.34678,1.36067,1.28271,0.0183255,-0.0199675,-0.00823213
0.3,5.93117,2.00875,2.02275,1.89966,0.0351419,-0.0295121,-0.0180645
0.4,7.84818,2.66565,2.68891,2.49363,0.0603769,-0.0416332,-0.0347372
0.5,9.73846,3.3133,3.34065,3.08452,0.0846405,-0.0417535,-0.0631339
0.6,11.5992,3.96194,3.98431,3.653,0.119371,-0.0378057,-0.0931303
0.7,13.4265,4.61204,4.61724,4.19727,0.143888,-0.0326524,-0.114091
0.8,15.2647,5.27823,5.24561,4.74084,0.156765,-0.0216405,-0.136437
0.9,17.0808,5.9386,5.86568,5.27655,0.169413,-0.00204508,-0.155111
1.0,18.8859,6.60748,6.48294,5.79548,0.17743,0.0218078,-0.17123
1.1,20.6728,7.27761,7.10279,6.29245,0.172631,0.0447925,-0.185975
1.2,22.4547,7.95078,7.7247,6.77919,0.17137,0.0641123,-0.189118
1.3,24.218,8.61849,8.33269,7.26684,0.157597,0.0876022,-0.198198
1.4,25.9474,9.28178,8.92902,7.73659,0.140157,0.115936,-0.195963
1.5,27.6695,9.94333,9.53015,8.19605,0.131005,0.141734,-0.192912
1.6,29.3754,10.5972,10.124,8.65425,0.123097,0.171378,-0.193071
1.7,31.0633,11.2379,10.719,9.10631,0.128565,0.192757,-0.186311
1.8,32.7452,11.8793,11.3129,9.55299,0.114884,0.221409,-0.174285
1.9,34.408,12.5168,11.8896,10.0017,0.0968819,0.251831,-0.149959
2.0,36.0808,13.15,12.4839,10.447,0.0718461,0.299661,-0.133388
2.1,37.7517,13.7789,13.0851,10.8877,0.0526006,0.348254,-0.109325
2.2,39.4061,14.3937,13.676,11.3364,0.0390574,0.387273,-0.0828837
2.3,41.0768,15.0184,14.2763,11.7821,0.031734,0.420917,-0.0596984
2.4,42.7553,15.647,14.8726,12.2358,0.0171442,0.451747,-0.0387785
2.5,44.3983,16.2638,15.4709,12.6636,0.0201007,0.477687,-0.0159576
2.6,46.0347,16.8777,16.0798,13.0772,0.0253707,0.485022,0.00128095
2.7,47.6773,17.492,16.6849,13.5005,0.0303233,0.496143,0.00341842
2.8,49.3289,18.1081,17.2921,13.9287,0.0318334,0.506843,0.00508176
2.9,50.9674,18.7371,17.8883,14.342,0.0331333,0.51439,0.0125839
3.0,52.6264,19.3709,18.5085,14.747,0.046502,0.50942,0.0297978
3.1,54.2566,20.0138,19.1091,15.1337,0.0477145,0.50993,0.0558947
3.2,55.8395,20.6316,19.6925,15.5153,0.0469155,0.518017,0.0811503
3.3,57.4127,21.2464,20.2658,15.9005,0.0500306,0.549019,0.0959969
3.4,58.9674,21.8597,20.8359,16.2717,0.051599,0.554633,0.100531
3.5,60.538,22.4757,21.4177,16.6446,0.0359084,0.560541,0.100143
3.6,62.0579,23.0786,21.9815,16.9977,0.0109495,0.56829,0.101728
3.7,63.5909,23.6922,22.5411,17.3577,-0.0305602,0.578913,0.102851
3.8,65.1402,24.3287,23.0905,17.721,-0.0720346,0.585357,0.109917
3.9,66.7118,24.9959,23.6496,18.0664,-0.111263,0.601328,0.123641
4.0,68.2381,25.6315,24.2075,18.399,-0.164215,0.603339,0.141923
4.1,69.8094,26.2828,24.7664,18.7601,-0.215264,0.615271,0.155568
4.2,71.3861,26.9427,25.3265,19.1169,-0.279439,0.641069,0.159793
4.3,72.9116,27.5928,25.8649,19.4539,-0.349372,0.650872,0.168936
4.4,74.4535,28.2451,26.4249,19.7835,-0.392404,0.658068,0.193453
4.5,76.0151,28.9027,27.0151,20.0972,-0.428455,0.665599,0.206145
4.6,77.5964,29.5592,27.621,20.4161,-0.460384,0.660106,0.217019
4.7,79.1783,30.2186,28.2292,20.7305,-0.49269,0.648866,0.248117
4.8,80.7415,30.8773,28.8303,21.0339,-0.516478,0.637297,0.278341
4.9,82.2725,31.515,29.4202,21.3373,-0.526511,0.611035,0.310262
5.0,83.8039,32.1693,30.0056,21.629,-0.515544,0.594335,0.354463
5.1,85.315,32.8489,30.5692,21.8968,-0.498604,0.574932,0.385103
5.2,86.8384,33.5015,31.1576,22.1793,-0.479671,0.545187,0.426286
5.3,88.3768,34.1451,31.7501,22.4816,-0.444571,0.516391,0.467467
5.4,89.8872,34.7495,32.344,22.7938,-0.4116,0.506362,0.494836
5.5,91.3915,35.3482,32.9377,23.1057,-0.405802,0.495836,0.534657
5.6,92.9493,35.9475,33.601,23.4009,-0.391145,0.505101,0.527909
5.7,94.4973,36.5399,34.2809,23.6765,-0.393062,0.527968,0.545117
5.8,95.9554,37.1299,34.9109,23.9146,-0.394895,0.5425,0.552643
5.9,97.4131,37.7146,35.5483,24.1502,-0.406552,0.55263,0.574088
6.0,98.7898,38.249,36.1654,24.3754,-0.42547,0.575619,0.584008
6.1,100.202,38.7917,36.7904,24.6197,-0.412905,0.58754,0.600353
6.2,101.591,39.3228,37.4074,24.8605,-0.403248,0.580341,0.621493
6.3,102.959,39.8691,38.0425,25.047,-0.4194,0.558068,0.631412
6.4,104.394,40.471,38.7027,25.2205,-0.431681,0.553982,0.594191
6.5,105.805,41.0479,39.3789,25.3785,-0.502097,0.568744,0.567605
6.6,107.177,41.6333,40.0404,25.5032,-0.603385,0.585888,0.547149
6.7,108.523,42.2041,40.6838,25.6354,-0.703691,0.62149,0.578652
6.8,109.832,42.7753,41.2731,25.7837,-0.803033,0.672225,0.60794
6.9,111.114,43.3473,41.815,25.9513,-0.867534,0.72503,0.657638
7.0,112.381,43.9139,42.3638,26.1033,-0.96545,0.785528,0.682825
7.1,113.721,44.5487,42.9097,26.2621,-1.04086,0.811865,0.712872
7.2,115.083,45.1861,43.4454,26.4516,-1.09978,0.846813,0.789705
7.3,116.474,45.8128,43.9808,26.6801,-1.11946,0.883497,0.902179
7.4,117.809,46.4117,44.4693,26.9284,-1.18075,0.903205,0.993579
7.5,119.141,46.992,44.9381,27.2109,-1.27478,0.946885,1.11309
7.6,120.538,47.6176,45.459,27.4618,-1.33556,0.975758,1.21568
7.7,121.947,48.2364,45.9865,27.7237,-1.43468,0.991774,1.33433
7.8,123.247,48.7811,46.4601,28.0059,-1.50214,1.00712,1.4364
7.9,124.528,49.354,46.9446,28.2289,-1.57211,1.04955,1.56802
8.0,125.847,50.0806,47.3902,28.3762,-1.58,1.03755,1.63083
8.1,127.31,50.8293,47.9279,28.5527,-1.57689,1.0363,1.68327
8.2,128.733,51.6316,48.4021,28.6997,-1.60447,1.09201,1.74234
8.3,130.038,52.3974,48.8263,28.8145,-1.5963,1.13906,1.79064
8.4,131.428,53.2542,49.2539,28.9202,-1.61567,1.21058,1.87466
8.5,132.9,54.1324,49.7394,29.0285,-1.59109,1.21489,1.99255
8.6,134.409,54.9851,50.2095,29.2141,-1.46467,1.23502,2.1129
8.7,135.904,55.8558,50.6841,29.364,-1.31856,1.22256,2.23004
8.8,137.28,56.6597,51.09,29.5303,-1.20204,1.18402,2.33561
8.9,138.759,57.4765,51.5302,29.7527,-1.11403,1.1273,2.43455
9.0,140.201,58.2076,51.9717,30.0215,-1.06122,1.05217,2.45335
9.1,141.616,59.0705,52.3262,30.2197,-0.93852,1.05748,2.43224
9.2,142.976,59.888,52.6417,30.4461,-0.836978,1.05475,2.46244
9.3,144.542,60.7925,53.057,30.6927,-0.774197,0.997751,2.50535
9.4,146.094,61.6826,53.472,30.9398,-0.755125,0.88569,2.54219
9.5,147.502,62.4591,54.0293,31.0133,-0.798223,0.950318,2.6135
9.6,149.096,63.3574,54.6248,31.1138,-0.872091,0.969117,2.65008
9.7,150.866,64.3284,55.3435,31.1941,-1.03047,0.945201,2.4399
9.8,152.241,64.8071,55.9739,31.4602,-1.33255,0.919308,2.34773
9.9,153.025,64.8703,56.2968,31.8583,-1.67729,1.17533,2.50744
10.0,154.68,65.0406,57.7309,31.9084,-1.90484,1.32543,2.5498
