Time (ns),trace,xx,yy,zz,yx,zx,zy
0.0,0.0,0.0,0.0,0.0,0.0,0.0,0.0
0.1,2.05159,0.689186,0.690034,0.672367,-0.00138803,3.60545e-05,-0.00942184
0.2,4.04346,1.36064,1.36455,1.31827,-0.00805823,-0.000620898,-0.0210804
0.3,5.98039,2.02054,2.01988,1.93998,-0.00991147,0.00159089,-0.0210404
0.4,7.88829,2.66415,2.6763,2.54783,-0.0125604,0.0107644,-0.0174355
0.5,9.75508,3.28773,3.32202,3.14533,-0.00782646,0.0194431,-0.0266033
0.6,11.5954,3.90492,3.96124,3.72924,0.00506721,0.0297342,-0.0298138
0.7,13.4282,4.5244,4.59039,4.31337,0.0189212,0.0417376,-0.0359399
0.8,15.2206,5.12828,5.21218,4.88015,0.0333706,0.0579171,-0.0336219
0.9,17.0071,5.72529,5.83249,5.44931,0.0408687,0.087938,-0.031855
1.0,18.7807,6.32619,6.45212,6.00236,0.0530909,0.122963,-0.0313322
1.1,20.5393,6.92875,7.06206,6.54854,0.0596565,0.157557,-0.0439415
1.2,22.2746,7.51896,7.67789,7.07771,0.0658334,0.195293,-0.0574195
1.3,23.9843,8.10623,8.28557,7.59249,0.064328,0.231693,-0.0853054
1.4,25.7135,8.70713,8.91405,8.09233,0.0720768,0.257058,-0.121777
1.5,27.4303,9.30131,9.54076,8.58825,0.0813127,0.273096,-0.15703
1.6,29.116,9.88821,10.1648,9.06302,0.0887152,0.283047,-0.187812
1.7,30.7892,10.4603,10.7864,9.54254,0.0918928,0.285854,-0.214522
1.8,32.454,11.0373,11.3989,10.0178,0.0915849,0.293693,-0.225669
1.9,34.1182,11.6356,12.0048,10.4779,0.103242,0.307913,-0.241237
2.0,35.7615,12.2318,12.5968,10.9329,0.125285,0.3194,-0.256679
2.1,37.4256,12.8523,13.1783,11.3949,0.129218,0.335183,-0.283012
2.2,39.0877,13.46,13.7678,11.8599,0.132492,0.359042,-0.298548
2.3,40.7483,14.0566,14.3675,12.3243,0.138653,0.383297,-0.31534
2.4,42.3952,14.6396,14.9763,12.7793,0.133665,0.403912,-0.328565
2.5,44.0849,15.2516,15.5892,13.2441,0.14028,0.430366,-0.353684
2.6,45.7649,15.854,16.1861,13.7248,0.149335,0.469564,-0.380136
2.7,47.4665,16.4642,16.7959,14.2064,0.156581,0.517206,-0.399825
2.8,49.1571,17.0598,17.4165,14.6808,0.173219,0.578876,-0.432277
2.9,50.8596,17.6666,18.0431,15.1498,0.192159,0.658468,-0.462279
3.0,52.5661,18.2761,18.6695,15.6205,0.211637,0.747475,-0.502882
3.1,54.2995,18.9092,19.3104,16.0799,0.227627,0.824097,-0.546388
3.2,56.0399,19.5611,19.9522,16.5266,0.247258,0.91129,-0.600342
3.3,57.7377,20.2011,20.5771,16.9594,0.255775,0.987191,-0.659637
3.4,59.4456,20.8572,21.1937,17.3947,0.264207,1.07167,-0.720826
3.5,61.1688,21.5091,21.8122,17.8476,0.273829,1.14659,-0.794325
3.6,62.9053,22.1693,22.4398,18.2963,0.271905,1.23247,-0.86276
3.7,64.5947,22.7983,23.0699,18.7265,0.260111,1.32405,-0.944668
3.8,66.2504,23.4327,23.6918,19.1258,0.265044,1.42004,-1.0211
3.9,67.879,24.0581,24.3195,19.5013,0.271429,1.53122,-1.09093
4.0,69.499,24.6665,24.9707,19.8619,0.27207,1.63672,-1.16091
4.1,71.0889,25.2629,25.5929,20.2331,0.275043,1.72599,-1.21771
4.2,72.6893,25.8728,26.2288,20.5877,0.303569,1.81566,-1.27413
4.3,74.2684,26.4645,26.866,20.9379,0.35617,1.90815,-1.31597
4.4,75.9095,27.0754,27.5344,21.2997,0.399855,1.99063,-1.35354
4.5,77.5799,27.691,28.2183,21.6705,0.443567,2.09285,-1.38369
4.6,79.2537,28.3138,28.9157,22.0242,0.474766,2.17631,-1.42086
4.7,80.9147,28.9299,29.6009,22.3839,0.507073,2.23954,-1.45888
4.8,82.5688,29.5513,30.2629,22.7546,0.5424,2.28418,-1.48276
4.9,84.2127,30.1792,30.9095,23.124,0.579203,2.32741,-1.51925
5.0,85.8174,30.7838,31.5632,23.4703,0.628237,2.37527,-1.54477
5.1,87.4371,31.4004,32.2489,23.7878,0.666759,2.3998,-1.5612
5.2,89.0226,31.9969,32.9132,24.1126,0.697964,2.41883,-1.57086
5.3,90.5577,32.5933,33.554,24.4103,0.720366,2.43315,-1.54594
5.4,92.0727,33.1861,34.172,24.7147,0.763314,2.43719,-1.5442
5.5,93.5702,33.7605,34.7916,25.0181,0.821386,2.42901,-1.55722
5.6,95.0222,34.3086,35.3996,25.3139,0.86572,2.41662,-1.57363
5.7,96.4342,34.8443,36.0104,25.5796,0.917383,2.39508,-1.58624
5.8,97.8054,35.3485,36.6303,25.8267,0.9649,2.37881,-1.62372
5.9,99.1767,35.8629,37.2679,26.0459,1.02203,2.33683,-1.65948
6.0,100.576,36.3887,37.9182,26.2689,1.08035,2.30477,-1.7083
6.1,101.922,36.9195,38.5547,26.4476,1.13986,2.26641,-1.74383
6.2,103.326,37.49,39.2147,26.621,1.1794,2.24643,-1.77058
6.3,104.744,38.0687,39.8541,26.8207,1.21269,2.25729,-1.75722
6.4,106.175,38.6433,40.5063,27.0255,1.23416,2.23217,-1.72028
6.5,107.587,39.2192,41.1288,27.2388,1.2763,2.20953,-1.62067
6.6,109.037,39.784,41.8077,27.4453,1.31365,2.17777,-1.50901
6.7,110.442,40.3509,42.4869,27.6043,1.34642,2.18982,-1.42538
6.8,111.862,40.9255,43.1615,27.7746,1.39347,2.21848,-1.34811
6.9,113.337,41.5702,43.8122,27.9546,1.41625,2.24481,-1.29115
7.0,114.774,42.1602,44.4515,28.1622,1.47931,2.31325,-1.24499
7.1,116.187,42.7605,45.0825,28.3444,1.57295,2.37763,-1.17864
7.2,117.627,43.3314,45.736,28.5594,1.61304,2.45376,-1.09917
7.3,119.109,43.9209,46.4307,28.7572,1.71553,2.47835,-1.03664
7.4,120.481,44.5038,47.0383,28.9394,1.79069,2.47568,-0.953264
7.5,121.844,45.1114,47.6294,29.1037,1.83447,2.48993,-0.835164
7.6,123.221,45.7235,48.201,29.2969,1.87752,2.49603,-0.765979
7.7,124.523,46.3438,48.7173,29.462,1.8771,2.50856,-0.69105
7.8,125.943,46.9997,49.2788,29.6644,1.83885,2.51006,-0.603253
7.9,127.357,47.7256,49.763,29.8686,1.79522,2.48647,-0.464372
8.0,128.757,48.4466,50.2774,30.0335,1.73911,2.45613,-0.346965
8.1,130.009,49.0769,50.7556,30.1766,1.71493,2.44844,-0.256906
8.2,131.272,49.7171,51.2921,30.2623,1.7226,2.45173,-0.175365
8.3,132.593,50.3549,51.8745,30.3634,1.75504,2.4933,-0.0686987
8.4,134.018,51.0205,52.5,30.4978,1.73615,2.60875,0.0150388
8.5,135.537,51.6016,53.1892,30.7465,1.7417,2.69551,0.0759908
8.6,136.994,52.1377,53.8897,30.9669,1.74601,2.87258,0.179959
8.7,138.493,52.607,54.614,31.2723,1.74512,3.02218,0.336704
8.8,140.103,53.115,55.4118,31.5761,1.74182,3.11575,0.526506
8.9,141.798,53.6549,56.2971,31.8456,1.67821,3.22074,0.701875
9.0,143.533,54.3501,56.9973,32.1858,1.51379,3.29248,0.834874
9.1,145.396,55.0359,57.8476,32.5129,1.40674,3.36854,0.934272
9.2,147.355,55.6889,58.696,32.97,1.39407,3.42054,1.03857
9.3,149.296,56.3408,59.5299,33.4252,1.2553,3.53633,1.07453
9.4,151.031,56.862,60.2606,33.908,1.15024,3.63411,1.14876
9.5,152.709,57.512,60.8518,34.3456,1.03741,3.68107,1.18435
9.6,153.973,57.7622,61.5028,34.7077,0.717851,3.51999,1.04831
9.7,154.69,57.8549,61.8294,35.0058,0.271883,3.38334,0.997171
9.8,155.241,58.0582,62.0742,35.1083,-0.0815483,3.1808,1.25608
9.9,155.811,58.3921,62.2282,35.1912,-0.0843106,3.10736,1.21776
10.0,156.56,59.0558,61.9265,35.5775,-0.477798,3.32349,1.01735
