Time (ns),trace,xx,yy,zz,yx,zx,zy
0.1,2.03942,0.689349,0.681539,0.66853,-0.00398449,-0.014334,-0.00629429
0.2,4.03499,1.36958,1.3585,1.3069,-0.00601186,-0.0315868,-0.0149402
0.3,6.01817,2.04695,2.03749,1.93373,0.000243549,-0.0505527,-0.0299349
0.4,7.99145,2.7316,2.70644,2.55341,0.00798813,-0.064876,-0.0403711
0.5,9.94381,3.42087,3.37661,3.14633,0.0163471,-0.0817087,-0.0493435
0.6,11.8923,4.12686,4.04418,3.72129,0.023041,-0.104605,-0.0701856
0.7,13.8189,4.83059,4.71663,4.27166,0.0194508,-0.123622,-0.0929777
0.8,15.7523,5.55431,5.40299,4.79501,0.0210538,-0.143799,-0.116927
0.9,17.6739,6.27959,6.0829,5.31145,0.02618,-0.164049,-0.140186
1.0,19.5957,7.00638,6.76652,5.8228,0.0285454,-0.181661,-0.161428
1.1,21.5374,7.74821,7.4524,6.33683,0.0248366,-0.208238,-0.17216
1.2,23.4775,8.50269,8.11713,6.85771,0.0278042,-0.231356,-0.1982
1.3,25.424,9.26202,8.78723,7.37473,0.0358624,-0.248834,-0.225677
1.4,27.3792,10.0229,9.46842,7.88788,0.039172,-0.283023,-0.256499
1.5,29.3332,10.7781,10.1572,8.39793,0.0384529,-0.318694,-0.296088
1.6,31.2447,11.5216,10.8297,8.89345,0.0377702,-0.353644,-0.345301
1.7,33.1277,12.2447,11.496,9.38691,0.0400889,-0.400936,-0.387646
1.8,35.0049,12.9753,12.1776,9.85192,0.04222,-0.445319,-0.419539
1.9,36.8576,13.7139,12.8613,10.2824,0.0334741,-0.475689,-0.448414
2.0,38.6926,14.4432,13.5402,10.7092,0.0243692,-0.502085,-0.481473
2.1,40.4983,15.1632,14.2158,11.1194,0.0175824,-0.51891,-0.512067
2.2,42.308,15.8889,14.9003,11.5187,0.0110985,-0.536361,-0.551084
2.3,44.1263,16.6305,15.5886,11.9073,-0.0108486,-0.538047,-0.605246
2.4,45.973,17.3843,16.3018,12.2869,-0.0369699,-0.544226,-0.653884
2.5,47.8295,18.1453,17.0224,12.6619,-0.0466335,-0.554639,-0.716134
2.6,49.7104,18.914,17.758,13.0383,-0.070493,-0.562375,-0.78604
2.7,51.5884,19.6838,18.4847,13.4198,-0.0885105,-0.578058,-0.861913
2.8,53.4869,20.4535,19.2346,13.7988,-0.112537,-0.594741,-0.948031
2.9,55.3955,21.2187,19.9885,14.1884,-0.137617,-0.608191,-1.0426
3.0,57.2854,21.9854,20.7227,14.5773,-0.157773,-0.633063,-1.12786
3.1,59.1474,22.7453,21.4618,14.9403,-0.182929,-0.663203,-1.21754
3.2,61.0328,23.4922,22.2269,15.3137,-0.203984,-0.703237,-1.28401
3.3,62.8873,24.2232,22.9726,15.6915,-0.241842,-0.751558,-1.34624
3.4,64.7609,24.9755,23.7125,16.0728,-0.276965,-0.804225,-1.4105
3.5,66.6295,25.7434,24.4519,16.4342,-0.314223,-0.854442,-1.46104
3.6,68.5243,26.5172,25.2267,16.7804,-0.342313,-0.903191,-1.52019
3.7,70.3968,27.2779,25.9915,17.1274,-0.371305,-0.931891,-1.59414
3.8,72.3011,28.0318,26.7692,17.5001,-0.395467,-0.96975,-1.67955
3.9,74.1774,28.7724,27.5394,17.8656,-0.435885,-1.00085,-1.75514
4.0,76.0122,29.5039,28.2937,18.2146,-0.474961,-1.03257,-1.81269
4.1,77.8224,30.1889,29.0538,18.5797,-0.515038,-1.05727,-1.8559
4.2,79.5888,30.843,29.8168,18.929,-0.53783,-1.07751,-1.90051
4.3,81.4127,31.528,30.6177,19.267,-0.554445,-1.09155,-1.94455
4.4,83.2621,32.2185,31.4228,19.6207,-0.555371,-1.11605,-1.98517
4.5,85.0595,32.881,32.2229,19.9556,-0.564391,-1.14556,-2.03247
4.6,86.9042,33.548,33.0518,20.3043,-0.56546,-1.18013,-2.091
4.7,88.6891,34.1836,33.8472,20.6583,-0.556791,-1.2189,-2.14353
4.8,90.4526,34.808,34.6428,21.0019,-0.550946,-1.25419,-2.19811
4.9,92.2677,35.4549,35.4461,21.3667,-0.555361,-1.29198,-2.25489
5.0,94.0631,36.0779,36.2763,21.7089,-0.567004,-1.33855,-2.32721
5.1,95.8353,36.7071,37.0863,22.0418,-0.585939,-1.3851,-2.38513
5.2,97.5894,37.3176,37.894,22.3778,-0.591622,-1.4364,-2.41929
5.3,99.318,37.9733,38.6662,22.6785,-0.598512,-1.48313,-2.43218
5.4,101.09,38.6774,39.4479,22.9648,-0.589548,-1.54233,-2.42292
5.5,102.907,39.4018,40.2616,23.244,-0.596915,-1.58461,-2.41799
5.6,104.671,40.1112,41.0467,23.5127,-0.611977,-1.62921,-2.42987
5.7,106.37,40.8152,41.7815,23.7729,-0.632914,-1.71322,-2.4687
5.8,108.04,41.4962,42.4905,24.053,-0.663101,-1.78924,-2.48004
5.9,109.74,42.2172,43.2016,24.321,-0.667936,-1.85759,-2.49619
6.0,111.437,42.9598,43.9151,24.562,-0.693403,-1.92003,-2.50002
6.1,113.106,43.6722,44.6168,24.8172,-0.750529,-1.98829,-2.49996
6.2,114.765,44.3704,45.3506,25.0438,-0.796094,-2.0551,-2.51854
6.3,116.318,45.0408,46.018,25.2588,-0.838268,-2.09933,-2.54755
6.4,117.902,45.7102,46.7036,25.4884,-0.905107,-2.14918,-2.57646
6.5,119.42,46.3409,47.3663,25.7132,-0.976016,-2.20889,-2.61321
6.6,121.026,47.0234,48.0515,25.9512,-1.01881,-2.26635,-2.62402
6.7,122.628,47.6879,48.7272,26.2124,-1.06614,-2.34941,-2.63192
6.8,124.23,48.3713,49.4366,26.4224,-1.14088,-2.39042,-2.63306
6.9,125.79,49.0158,50.1676,26.607,-1.20611,-2.38918,-2.62799
7.0,127.37,49.6781,50.9023,26.7898,-1.31541,-2.3865,-2.58136
7.1,128.826,50.3076,51.666,26.8524,-1.4306,-2.37368,-2.55122
7.2,130.271,50.9748,52.404,26.8927,-1.54997,-2.33325,-2.46733
7.3,131.693,51.6221,53.094,26.9771,-1.67857,-2.29466,-2.39314
7.4,133.033,52.2209,53.784,27.0276,-1.78535,-2.2956,-2.30108
7.5,134.403,52.7949,54.4922,27.1164,-1.90539,-2.2998,-2.21693
7.6,135.794,53.4115,55.1662,27.2165,-2.0325,-2.28679,-2.16015
7.7,137.241,54.0321,55.9279,27.2806,-2.19575,-2.26723,-2.10584
7.8,138.694,54.7063,56.6784,27.3095,-2.32246,-2.21057,-2.04859
7.9,140.291,55.4525,57.4935,27.3451,-2.41052,-2.13988,-2.00728
8.0,142.067,56.2634,58.3625,27.4406,-2.5009,-2.08797,-1.93275
8.1,143.815,57.0211,59.1982,27.5958,-2.53593,-2.05653,-1.93928
8.2,145.559,57.8185,60.047,27.6936,-2.50823,-2.06189,-1.91311
8.3,147.281,58.571,60.891,27.8188,-2.51336,-2.08424,-1.83111
8.4,148.933,59.284,61.7411,27.9084,-2.49685,-2.13224,-1.75105
8.5,150.386,59.8829,62.5352,27.9684,-2.52696,-2.14869,-1.63897
8.6,151.82,60.5392,63.3543,27.9265,-2.52654,-2.1697,-1.48744
8.7,153.33,61.2373,64.0263,28.066,-2.48485,-2.25139,-1.3694
8.8,154.817,61.976,64.5966,28.244,-2.44672,-2.32301,-1.30371
8.9,156.137,62.5864,65.175,28.3752,-2.4569,-2.43253,-1.19302
9.0,157.539,63.3104,65.8599,28.3684,-2.39528,-2.59862,-1.11479
9.1,158.769,64.0875,66.4554,28.2258,-2.24985,-2.75696,-1.01151
9.2,160.146,64.8136,67.2089,28.1233,-2.11903,-2.88377,-0.888837
9.3,161.347,65.5533,67.8084,27.985,-2.01036,-2.928,-0.796377
9.4,162.622,66.1166,68.7254,27.7803,-1.92334,-3.04801,-0.795302
9.5,163.986,66.7168,69.5458,27.7231,-1.92143,-3.09058,-0.81571
9.6,164.923,67.3318,70.0135,27.5775,-1.75464,-2.98845,-0.84331
9.7,166.129,68.4079,70.4479,27.2731,-1.45128,-2.89284,-1.20267
9.8,166.914,69.4464,70.4824,26.9847,-0.895075,-2.62406,-1.48454
9.9,167.52,69.4967,71.2961,26.7272,-0.180223,-2.34793,-1.49343
10.0,169.07,69.9975,72.702,26.3704,1.08885,-2.32899,-1.67123
10.1,2.06017,0.692583,0.689518,0.678072,-0.00226432,0.00406371,0.00256024
10.2,4.0583,1.37203,1.35727,1.329,-0.00125812,0.0056037,0.00321636
10.3,6.03679,2.04413,2.01237,1.98029,0.0058162,0.00803058,-0.00136232
10.4,7.98657,2.7119,2.65816,2.61651,0.00595235,0.0050584,-0.000375197
10.5,9.93387,3.38035,3.30783,3.24569,0.0108524,0.00843534,0.00522559
10.6,11.8379,4.0494,3.94372,3.84479,0.028982,0.0104116,0.00799395
10.7,13.723,4.70212,4.5762,4.4447,0.0391734,0.00826971,0.0032049
10.8,15.5984,5.35269,5.20863,5.03708,0.0582666,0.00793928,-0.000862627
10.9,17.4724,6.01213,5.83671,5.62361,0.0767582,-0.00727766,0.000977975
11.0,19.3513,6.68121,6.46009,6.21001,0.101866,-0.00921516,0.00623667
11.1,21.2333,7.35642,7.08992,6.78693,0.121039,-0.0177999,0.000667796
11.2,23.0922,8.02713,7.71748,7.34761,0.145601,-0.0216284,0.00766643
11.3,24.9238,8.69855,8.34595,7.87935,0.161357,-0.01224,0.0224256
11.4,26.7479,9.3615,8.98172,8.40463,0.18204,0.00263486,0.0345977
11.5,28.557,10.0201,9.61899,8.91791,0.204639,0.0148843,0.0522694
11.6,30.3399,10.6821,10.2424,9.41544,0.230165,0.0296222,0.0534412
11.7,32.0844,11.3411,10.847,9.89627,0.244245,0.0521568,0.0416099
11.8,33.8043,12.0025,11.4575,10.3443,0.261419,0.0648495,0.0289577
11.9,35.4952,12.6562,12.076,10.763,0.277878,0.0705954,0.0287307
12.0,37.1906,13.3099,12.7089,11.1718,0.296426,0.0812866,0.0296985
12.1,38.8713,13.9559,13.3364,11.579,0.317926,0.0822787,0.0164991
12.2,40.531,14.5881,13.9637,11.9792,0.344997,0.0947155,0.00380761
12.3,42.1894,15.2313,14.6018,12.3564,0.368062,0.105979,-0.00318173
12.4,43.7749,15.8489,15.2192,12.7068,0.384059,0.110516,0.000189277
12.5,45.35,16.4626,15.8477,13.0398,0.395713,0.098247,-0.000848011
12.6,46.92,17.0976,16.4703,13.3521,0.407709,0.0910306,-0.00115365
12.7,48.4559,17.7179,17.0889,13.649,0.424541,0.082651,0.00502796
12.8,50.0071,18.3434,17.7222,13.9414,0.4353,0.0803699,0.00898256
12.9,51.5897,18.9864,18.359,14.2443,0.444632,0.0981112,0.00985054
13.0,53.1823,19.6376,19.0,14.5447,0.452588,0.0979736,0.00522196
13.1,54.7819,20.3033,19.6256,14.853,0.464909,0.101336,-0.00821131
13.2,56.3757,20.9653,20.2492,15.1612,0.477384,0.103909,-0.0350692
13.3,57.9843,21.6273,20.8839,15.4732,0.505518,0.115056,-0.0577296
13.4,59.5922,22.2956,21.5015,15.7951,0.539508,0.131751,-0.0916982
13.5,61.1847,22.9634,22.0997,16.1216,0.569475,0.148538,-0.143501
13.6,62.793,23.6491,22.6847,16.4592,0.606621,0.173333,-0.202409
13.7,64.3581,24.3287,23.2551,16.7742,0.653294,0.20477,-0.266885
13.8,65.9002,25.0196,23.7948,17.0858,0.695542,0.259314,-0.32535
13.9,67.42,25.7023,24.3305,17.3872,0.72055,0.331131,-0.38271
14.0,68.9405,26.4092,24.8402,17.6911,0.747733,0.407905,-0.448653
14.1,70.4628,27.133,25.3566,17.9732,0.744335,0.48242,-0.519465
14.2,71.9795,27.8627,25.8683,18.2485,0.726295,0.562929,-0.592751
14.3,73.5133,28.6028,26.3947,18.5157,0.69562,0.641816,-0.660281
14.4,75.0466,29.3202,26.9307,18.7957,0.65324,0.73514,-0.728637
14.5,76.5927,30.0636,27.4787,19.0505,0.593128,0.845537,-0.775077
14.6,78.1003,30.7653,28.0177,19.3172,0.551939,0.972807,-0.801083
14.7,79.6166,31.4469,28.5816,19.5881,0.515117,1.11951,-0.829494
14.8,81.1603,32.1341,29.1468,19.8794,0.466922,1.27221,-0.847348
14.9,82.6824,32.8181,29.6959,20.1684,0.433741,1.4195,-0.87409
15.0,84.1927,33.485,30.2702,20.4375,0.403565,1.56146,-0.8872
15.1,85.6778,34.1544,30.8268,20.6966,0.33862,1.69867,-0.911637
15.2,87.1945,34.8429,31.4094,20.9422,0.267116,1.8543,-0.931123
15.3,88.6985,35.5491,31.9837,21.1658,0.214484,2.02448,-0.956535
15.4,90.1617,36.2504,32.5502,21.3611,0.172327,2.18351,-0.968658
15.5,91.5997,36.9561,33.1209,21.5227,0.148652,2.33574,-0.975685
15.6,93.0501,37.6881,33.6773,21.6847,0.152609,2.4962,-0.994086
15.7,94.5196,38.4362,34.2332,21.8502,0.168987,2.66122,-1.02274
15.8,95.9927,39.1771,34.7894,22.0262,0.222047,2.81946,-1.0304
15.9,97.4703,39.9186,35.3555,22.1961,0.282944,2.98636,-1.04333
16.0,98.9617,40.6663,35.9211,22.3744,0.363617,3.1561,-1.07773
16.1,100.448,41.3746,36.5266,22.5466,0.439439,3.32248,-1.07939
16.2,101.942,42.0823,37.1493,22.7107,0.543276,3.4769,-1.11659
16.3,103.38,42.7719,37.7794,22.8282,0.636166,3.63355,-1.1509
16.4,104.728,43.4185,38.3461,22.9635,0.74992,3.77766,-1.16865
16.5,106.091,44.0862,38.8816,23.1227,0.897529,3.91951,-1.15771
16.6,107.492,44.7503,39.457,23.2846,1.02407,4.03276,-1.13972
16.7,108.918,45.4346,40.0283,23.4547,1.15299,4.15837,-1.11732
16.8,110.389,46.135,40.63,23.624,1.26522,4.27763,-1.09204
16.9,111.874,46.8242,41.2434,23.8065,1.36189,4.4346,-1.06473
17.0,113.337,47.5032,41.8758,23.9581,1.44786,4.56095,-1.06066
17.1,114.856,48.2216,42.5027,24.1313,1.5136,4.69837,-1.06921
17.2,116.4,48.9296,43.1855,24.2847,1.55077,4.81022,-1.10291
17.3,117.914,49.5618,43.8893,24.4633,1.60157,4.94493,-1.13273
17.4,119.513,50.1882,44.6625,24.6624,1.64089,5.08137,-1.14957
17.5,121.102,50.8056,45.4205,24.8762,1.69204,5.21218,-1.17092
17.6,122.809,51.4928,46.2011,25.1151,1.71594,5.32236,-1.19706
17.7,124.472,52.2515,46.9309,25.2897,1.70454,5.40015,-1.24282
17.8,126.19,53.043,47.6565,25.4904,1.66867,5.46186,-1.27265
17.9,127.864,53.8437,48.347,25.6737,1.59254,5.55453,-1.32139
18.0,129.502,54.6262,48.986,25.8896,1.48355,5.66122,-1.32586
18.1,131.204,55.5122,49.5838,26.1082,1.34689,5.79645,-1.34988
18.2,132.947,56.4314,50.2308,26.2849,1.24764,5.92773,-1.33007
18.3,134.587,57.3061,50.8516,26.4294,1.17963,6.10866,-1.22498
18.4,136.125,58.1317,51.4435,26.5494,1.15526,6.27437,-1.11149
18.5,137.452,58.9816,51.8592,26.611,1.10648,6.36742,-1.01808
18.6,138.569,59.6326,52.3324,26.6042,1.06624,6.41176,-0.910786
18.7,139.679,60.2,52.8366,26.6428,1.04972,6.60939,-0.809726
18.8,140.718,60.74,53.364,26.6137,1.02963,6.75182,-0.637592
18.9,141.653,61.1909,53.8524,26.6095,1.05066,6.92431,-0.483711
19.0,142.75,61.8227,54.331,26.5963,1.00127,7.12844,-0.426229
19.1,143.705,62.4787,54.6704,26.5555,1.0049,7.33612,-0.533245
19.2,144.77,63.0737,55.1675,26.5293,0.997294,7.55918,-0.68724
19.3,146.182,63.755,55.7904,26.6369,1.03477,7.72321,-0.924052
19.4,147.702,64.6094,56.5353,26.5576,0.985707,7.92247,-1.19531
19.5,149.281,65.5526,57.1652,26.563,0.927812,8.13832,-1.49695
19.6,150.51,66.3334,57.5235,26.6528,0.966735,8.25108,-1.7647
19.7,151.76,67.0149,57.9224,26.8224,1.00885,8.20918,-2.00948
19.8,152.07,67.1587,58.1835,26.7273,0.958184,8.22144,-2.19088
19.9,152.416,67.6367,57.9865,26.7933,0.818181,8.21313,-2.64372
20.0,152.43,68.1817,57.1624,27.0857,0.502751,8.45687,-2.71872
20.1,2.04684,0.690251,0.69181,0.66478,0.000712169,-0.00324418,-0.00573401
20.2,4.05655,1.38079,1.37271,1.30305,0.00260424,-0.0104436,-0.00822697
20.3,6.02784,2.06804,2.04695,1.91286,0.00162908,-0.0100978,-0.00722796
20.4,7.99174,2.75107,2.71953,2.52114,-0.011001,-0.0208259,-0.0033609
20.5,9.95532,3.44316,3.38938,3.12278,-0.0230669,-0.0320856,0.000360819
20.6,11.9231,4.14073,4.06806,3.7143,-0.0286001,-0.0370422,0.00756056
20.7,13.8788,4.85107,4.74312,4.28462,-0.0257415,-0.0437974,0.0248947
20.8,15.837,5.55374,5.42393,4.85931,-0.0174969,-0.0536983,0.0486653
20.9,17.792,6.25721,6.11663,5.41811,-0.0123682,-0.0576787,0.0808126
21.0,19.7424,6.97778,6.79905,5.9656,0.00128067,-0.0496926,0.119972
21.1,21.6731,7.69806,7.47351,6.50155,0.0110303,-0.0388643,0.158701
21.2,23.6186,8.43508,8.1566,7.02696,0.0209121,-0.0264385,0.203051
21.3,25.5479,9.15925,8.83982,7.54883,0.0402213,-0.0180723,0.23491
21.4,27.4484,9.88519,9.50785,8.05537,0.0718472,-0.0149979,0.259383
21.5,29.3236,10.5939,10.1733,8.55644,0.102035,-0.0192295,0.293464
21.6,31.1848,11.2964,10.8324,9.05596,0.135088,-0.0243062,0.324013
21.7,33.029,11.9899,11.4956,9.54358,0.165132,-0.0287044,0.355047
21.8,34.8413,12.6748,12.1425,10.024,0.185427,-0.0286598,0.400509
21.9,36.6242,13.3484,12.7819,10.4939,0.200611,-0.0252753,0.441683
22.0,38.3897,14.0159,13.4126,10.9612,0.207829,-0.020835,0.478862
22.1,40.1378,14.6846,14.038,11.4153,0.204736,-0.0272006,0.512463
22.2,41.8629,15.3444,14.6475,11.871,0.197725,-0.0299613,0.534337
22.3,43.5802,16.0072,15.2556,12.3174,0.185042,-0.0270797,0.559343
22.4,45.2965,16.6608,15.8706,12.765,0.179993,-0.044099,0.591582
22.5,47.0096,17.297,16.5107,13.2019,0.172635,-0.0722924,0.626416
22.6,48.6825,17.9127,17.1592,13.6106,0.152369,-0.113793,0.662378
22.7,50.3187,18.5309,17.7766,14.0112,0.125749,-0.161985,0.699557
22.8,51.9674,19.1627,18.3886,14.416,0.0969262,-0.209544,0.733022
22.9,53.5728,19.76,18.9927,14.82,0.0562187,-0.266363,0.756635
23.0,55.1709,20.3505,19.5959,15.2245,0.00597229,-0.327451,0.788462
23.1,56.7682,20.9333,20.2135,15.6214,-0.0487162,-0.404315,0.817572
23.2,58.3499,21.5071,20.8414,16.0014,-0.105467,-0.4761,0.853136
23.3,59.9134,22.0876,21.4571,16.3687,-0.156345,-0.537551,0.878982
23.4,61.4816,22.6676,22.0804,16.7337,-0.220068,-0.595659,0.908607
23.5,63.0286,23.2425,22.6988,17.0873,-0.267007,-0.664634,0.942841
23.6,64.6015,23.832,23.3159,17.4535,-0.32042,-0.729454,0.963544
23.7,66.1565,24.4339,23.9092,17.8133,-0.397042,-0.792309,0.976138
23.8,67.7371,25.0561,24.5133,18.1677,-0.472974,-0.860874,0.997434
23.9,69.335,25.6878,25.1201,18.527,-0.540148,-0.933832,1.01526
24.0,70.9403,26.3157,25.729,18.8956,-0.610406,-1.00297,1.03631
24.1,72.5459,26.9752,26.335,19.2357,-0.681119,-1.08203,1.06594
24.2,74.1483,27.6514,26.9265,19.5705,-0.746838,-1.16934,1.09481
24.3,75.7761,28.3301,27.5402,19.9058,-0.813096,-1.27118,1.12547
24.4,77.3942,29.0221,28.1476,20.2245,-0.856312,-1.35539,1.14657
24.5,78.9988,29.6978,28.775,20.526,-0.879228,-1.44605,1.17401
24.6,80.622,30.3833,29.3987,20.8401,-0.889232,-1.5481,1.19691
24.7,82.2189,31.0696,30.0134,21.1359,-0.890097,-1.63531,1.20048
24.8,83.8204,31.7484,30.6205,21.4515,-0.897602,-1.72689,1.20604
24.9,85.4588,32.4379,31.2349,21.786,-0.894841,-1.79975,1.22292
25.0,87.0485,33.0988,31.8372,22.1125,-0.872103,-1.86171,1.24438
25.1,88.6257,33.791,32.3935,22.4412,-0.872842,-1.90722,1.25251
25.2,90.1725,34.503,32.9392,22.7303,-0.859463,-1.95878,1.26354
25.3,91.6989,35.1983,33.4729,23.0277,-0.859213,-2.00874,1.267
25.4,93.2065,35.8741,33.9924,23.34,-0.863937,-2.04442,1.2828
25.5,94.7218,36.5711,34.5149,23.6359,-0.868017,-2.06271,1.34401
25.6,96.2702,37.2925,35.0518,23.9259,-0.858767,-2.08475,1.40074
25.7,97.8863,38.0158,35.6074,24.263,-0.851128,-2.12085,1.45875
25.8,99.5008,38.765,36.1644,24.5713,-0.820996,-2.13799,1.49091
25.9,101.102,39.51,36.7043,24.8877,-0.786498,-2.158,1.54545
26.0,102.761,40.2975,37.265,25.198,-0.751807,-2.18947,1.57524
26.1,104.401,41.0721,37.8433,25.4852,-0.707069,-2.19928,1.61384
26.2,106.008,41.8275,38.4356,25.7453,-0.665907,-2.20823,1.66917
26.3,107.65,42.5851,39.04,26.0252,-0.625076,-2.25392,1.74391
26.4,109.312,43.3471,39.6636,26.3015,-0.570466,-2.29417,1.82863
26.5,111.035,44.1336,40.316,26.5851,-0.495939,-2.31579,1.90299
26.6,112.703,44.9015,40.9836,26.8176,-0.450066,-2.31333,1.99143
26.7,114.379,45.7127,41.6481,27.018,-0.427472,-2.30931,2.03593
26.8,116.095,46.5311,42.3729,27.1911,-0.411179,-2.2779,2.08894
26.9,117.835,47.3987,43.118,27.3186,-0.386684,-2.29651,2.16825
27.0,119.561,48.2397,43.8306,27.4907,-0.362762,-2.32122,2.24374
27.1,121.356,49.1135,44.5556,27.6871,-0.339114,-2.34884,2.35769
27.2,123.133,49.9843,45.2541,27.8949,-0.294915,-2.3808,2.44872
27.3,124.838,50.8008,45.9301,28.107,-0.240017,-2.44814,2.58214
27.4,126.555,51.6354,46.5965,28.3228,-0.172058,-2.49379,2.71662
27.5,128.256,52.4715,47.2633,28.5212,-0.0794629,-2.49785,2.86348
27.6,129.998,53.3246,47.9782,28.6954,0.0353661,-2.48054,3.02845
27.7,131.804,54.2539,48.7005,28.8492,0.0853781,-2.47924,3.18489
27.8,133.652,55.2361,49.3918,29.0243,0.158695,-2.49992,3.35955
27.9,135.463,56.2322,50.0565,29.1744,0.221572,-2.51976,3.52167
28.0,137.17,57.1909,50.6893,29.2897,0.262205,-2.4759,3.72226
28.1,138.868,58.2146,51.2632,29.3904,0.272517,-2.43022,3.91689
28.2,140.564,59.26,51.8161,29.4884,0.261181,-2.39117,4.09061
28.3,142.218,60.2807,52.3534,29.5837,0.295467,-2.34582,4.24525
28.4,143.822,61.3015,52.9083,29.6123,0.385819,-2.27792,4.38629
28.5,145.44,62.2699,53.4842,29.6859,0.496087,-2.2004,4.56554
28.6,147.133,63.1869,54.1393,29.8066,0.616248,-2.10144,4.70752
28.7,148.637,64.0181,54.725,29.8935,0.67731,-2.00563,4.83686
28.8,150.059,64.7686,55.2866,30.0035,0.774376,-1.87358,4.90337
28.9,151.595,65.6508,55.8847,30.0592,0.846605,-1.80369,4.91604
29.0,153.187,66.4953,56.4506,30.2411,0.943433,-1.87856,4.88545
29.1,154.987,67.3906,57.095,30.5013,1.03463,-2.05835,4.79278
29.2,156.923,68.2853,57.8191,30.8185,1.16923,-2.26176,4.8092
29.3,158.58,69.0431,58.4735,31.0633,1.30089,-2.56781,4.82961
29.4,160.251,69.9465,59.0095,31.2955,1.43222,-2.74535,4.90012
29.5,161.883,70.8055,59.6618,31.4154,1.59662,-2.83778,5.02619
29.6,164.061,71.7245,60.4575,31.8791,1.67846,-3.03826,5.1608
29.7,166.473,72.9097,61.0733,32.4896,1.6666,-3.38303,5.32791
29.8,169.009,74.2251,61.3661,33.4176,1.53874,-3.75679,5.25564
29.9,171.828,75.6167,62.4753,33.7365,1.88862,-3.73618,5.43649
30.0,173.948,75.8237,63.2539,34.87,2.09726,-4.58819,5.40478
30.1,2.03302,0.677531,0.686311,0.66918,-0.00148937,0.000812798,-0.00905127
30.2,3.99887,1.35343,1.34668,1.29875,0.00457499,-0.00155517,-0.0246912
30.3,5.91783,2.02332,1.9834,1.91111,0.0080443,0.00313405,-0.0361683
30.4,7.8315,2.70193,2.61809,2.51148,0.0187078,0.00990302,-0.0378511
30.5,9.71824,3.36699,3.24325,3.10801,0.0409195,0.0188047,-0.035682
30.6,11.5966,4.02221,3.86643,3.70799,0.0509337,0.0316203,-0.0327256
30.7,13.468,4.68751,4.47157,4.30889,0.058262,0.0373394,-0.0319384
30.8,15.3337,5.34731,5.0788,4.90756,0.0652036,0.0370895,-0.0366621
30.9,17.1841,6.01333,5.67574,5.49504,0.0776923,0.0327658,-0.0330537
31.0,19.0228,6.66677,6.28561,6.07043,0.0860801,0.0207136,-0.0246041
31.1,20.8524,7.31716,6.88843,6.64683,0.0931328,0.0040983,-0.019989
