Time (ns),trace,xx,yy,zz,yx,zx,zy
0.0,0.0,0.0,0.0,0.0,0.0,0.0,0.0
0.1,2.01269,0.682361,0.68393,0.646397,-0.00282796,-0.00280734,0.00310509
0.2,3.99558,1.35397,1.35482,1.28678,-0.0137117,0.00294007,-0.00237972
0.3,5.9439,2.02334,2.01135,1.90921,-0.0188933,0.0100009,-0.0055447
0.4,7.89626,2.70404,2.66762,2.5246,-0.0256549,0.0184258,-0.00251851
0.5,9.81911,3.37909,3.31737,3.12265,-0.0347762,0.0285276,0.0102562
0.6,11.7358,4.05157,3.97749,3.70671,-0.0440462,0.0415855,0.0225595
0.7,13.6418,4.7151,4.6389,4.2878,-0.0556728,0.059649,0.0327611
0.8,15.5297,5.37339,5.29278,4.86348,-0.0696493,0.0635844,0.0367985
0.9,17.4271,6.03834,5.95376,5.43498,-0.0833638,0.062831,0.0418519
1.0,19.3062,6.70215,6.61038,5.99371,-0.0953577,0.0651892,0.0487053
1.1,21.1521,7.35871,7.26994,6.52349,-0.100979,0.0775348,0.0574025
1.2,22.9705,8.01298,7.92217,7.03532,-0.0974507,0.0908498,0.0691852
1.3,24.7891,8.66659,8.57692,7.54559,-0.0819548,0.100764,0.0722335
1.4,26.5915,9.29771,9.25166,8.0421,-0.0558308,0.117893,0.0707792
1.5,28.3932,9.93395,9.92906,8.53016,-0.0274254,0.129752,0.0805677
1.6,30.1728,10.5857,10.5905,8.99663,0.00485691,0.146706,0.0855141
1.7,31.9715,11.2458,11.2658,9.45992,0.033849,0.172178,0.0880107
1.8,33.7288,11.9109,11.9299,9.88791,0.0609159,0.197629,0.0953452
1.9,35.4466,12.5643,12.5837,10.2985,0.102098,0.202333,0.0915404
2.0,37.1633,13.2092,13.2433,10.7107,0.144102,0.215942,0.0929078
2.1,38.885,13.8454,13.9235,11.1161,0.183001,0.232121,0.104565
2.2,40.6234,14.4852,14.6134,11.5247,0.213604,0.247044,0.103437
2.3,42.3769,15.1283,15.3092,11.9394,0.246726,0.251973,0.105736
2.4,44.1216,15.7692,15.9875,12.3649,0.284333,0.25649,0.0954956
2.5,45.8779,16.3968,16.684,12.7971,0.336351,0.265314,0.0787443
2.6,47.6471,17.0164,17.3978,13.2328,0.400631,0.265992,0.0628606
2.7,49.3905,17.6329,18.0857,13.6719,0.465345,0.284723,0.0537027
2.8,51.1377,18.2514,18.7767,14.1095,0.537677,0.306557,0.0411313
2.9,52.8711,18.8569,19.4651,14.5491,0.605098,0.330978,0.0265806
3.0,54.6371,19.4816,20.1591,14.9964,0.679992,0.359629,0.0230034
3.1,56.3902,20.0856,20.8663,15.4383,0.767115,0.387708,0.0134428
3.2,58.1571,20.677,21.5697,15.9104,0.847612,0.404704,0.00826906
3.3,59.8898,21.2425,22.2615,16.3857,0.934582,0.408791,0.00586754
3.4,61.608,21.8018,22.9523,16.854,1.01021,0.417511,0.0141292
3.5,63.32,22.3643,23.6472,17.3085,1.09011,0.424269,0.00978015
3.6,65.0446,22.9303,24.3542,17.7601,1.1509,0.43396,0.00823328
3.7,66.7828,23.4899,25.0852,18.2077,1.19976,0.435985,0.0169793
3.8,68.4982,24.0574,25.7871,18.6537,1.2515,0.436965,0.0389006
3.9,70.2123,24.6323,26.4749,19.1051,1.29842,0.442404,0.0569082
4.0,71.9461,25.2273,27.158,19.5607,1.34352,0.446397,0.0616559
4.1,73.7189,25.8485,27.8608,20.0096,1.3921,0.448452,0.0740329
4.2,75.4851,26.4733,28.5775,20.4342,1.42452,0.441778,0.103886
4.3,77.1928,27.0901,29.2621,20.8407,1.462,0.43026,0.135226
4.4,78.8897,27.6814,29.9575,21.2508,1.49415,0.400699,0.182226
4.5,80.5878,28.28,30.636,21.6718,1.52055,0.370423,0.236641
4.6,82.2855,28.8778,31.336,22.0718,1.54467,0.348801,0.28141
4.7,83.9819,29.4657,32.0662,22.45,1.56398,0.323213,0.317867
4.8,85.673,30.0657,32.7758,22.8315,1.5981,0.329271,0.329162
4.9,87.3671,30.6554,33.5015,23.2102,1.63256,0.334813,0.317252
5.0,89.0506,31.2616,34.1963,23.5928,1.68104,0.337285,0.304996
5.1,90.6779,31.8661,34.882,23.9298,1.73063,0.347264,0.298967
5.2,92.3428,32.477,35.5722,24.2935,1.78627,0.345684,0.285843
5.3,94.0352,33.0926,36.2477,24.6949,1.84194,0.354527,0.272386
5.4,95.7037,33.7129,36.9456,25.0452,1.86709,0.371949,0.27875
5.5,97.3325,34.3259,37.6083,25.3983,1.89275,0.386802,0.296884
5.6,98.8944,34.9387,38.2309,25.7247,1.92774,0.414532,0.321599
5.7,100.456,35.5301,38.8641,26.0616,1.95762,0.449557,0.358783
5.8,102.035,36.146,39.4901,26.3989,2.02558,0.50945,0.404843
5.9,103.567,36.7176,40.13,26.7199,2.0626,0.55552,0.413829
6.0,105.113,37.2951,40.7848,27.0327,2.11422,0.607552,0.442547
6.1,106.588,37.8398,41.3964,27.3516,2.15714,0.646091,0.497758
6.2,108.146,38.4307,42.0225,27.6931,2.18853,0.677856,0.519882
6.3,109.652,39.0079,42.594,28.0503,2.23937,0.681261,0.570536
6.4,111.097,39.5728,43.0912,28.4335,2.30351,0.705634,0.63451
6.5,112.544,40.1405,43.5701,28.833,2.35444,0.704873,0.698276
6.6,113.927,40.7062,44.0148,29.2061,2.40616,0.696265,0.767305
6.7,115.326,41.2738,44.499,29.5529,2.47368,0.723913,0.856356
6.8,116.686,41.7915,45.0043,29.8905,2.51826,0.744491,0.941681
6.9,118.038,42.284,45.5483,30.2054,2.52644,0.772652,1.02795
7.0,119.258,42.7287,46.0785,30.4512,2.49003,0.807365,1.12616
7.1,120.534,43.1705,46.6108,30.7522,2.45699,0.852524,1.24047
7.2,121.836,43.6122,47.1833,31.0406,2.46115,0.884876,1.3681
7.3,123.122,44.0405,47.7694,31.3118,2.48298,0.918747,1.47614
7.4,124.455,44.4759,48.3773,31.6017,2.53685,0.916194,1.58296
7.5,125.752,44.8926,48.9744,31.8854,2.58888,0.938746,1.68378
7.6,127.039,45.3073,49.5605,32.1709,2.67931,0.973973,1.7944
7.7,128.353,45.7027,50.194,32.4566,2.76937,1.03868,1.88406
7.8,129.688,46.0888,50.8313,32.7678,2.82557,1.1436,1.96357
7.9,131.053,46.4597,51.5516,33.042,2.8872,1.2059,2.05927
8.0,132.35,46.7501,52.2546,33.3457,2.92649,1.28687,2.15689
8.1,133.65,47.1012,52.9391,33.6097,2.95083,1.33375,2.30997
8.2,135.087,47.5553,53.5857,33.9461,2.98403,1.35154,2.48962
8.3,136.432,47.9942,54.2553,34.1826,3.03767,1.39767,2.65214
8.4,137.687,48.4221,54.8837,34.381,3.01359,1.46103,2.79248
8.5,138.854,48.7564,55.6062,34.4916,2.96608,1.52664,2.97598
8.6,139.857,49.0742,56.2966,34.4867,2.88056,1.59787,3.20784
8.7,140.862,49.4891,56.852,34.5212,2.80445,1.61633,3.42661
8.8,141.952,50.0669,57.3512,34.5335,2.67476,1.60714,3.68455
8.9,142.977,50.6215,57.7604,34.5952,2.52609,1.70045,3.94874
9.0,143.946,51.1554,58.0503,34.7399,2.40971,1.75732,4.23821
9.1,144.977,51.6867,58.4617,34.8289,2.29735,1.89575,4.52419
9.2,146.21,52.3411,58.8799,34.9893,2.20897,2.01007,4.87729
9.3,147.301,52.816,59.3022,35.183,1.95466,2.04965,5.125
9.4,148.41,53.4613,59.6238,35.3249,1.9446,2.02494,5.3431
9.5,149.503,54.0932,60.1756,35.2341,1.71995,2.09748,5.54358
9.6,150.51,54.8778,60.4306,35.2016,1.43481,2.09475,5.59527
9.7,151.7,55.9104,60.6758,35.1138,1.35773,2.074,5.49576
9.8,153.005,56.9004,61.1436,34.9612,1.49806,2.18909,5.45703
9.9,153.97,57.614,61.7485,34.6071,1.52485,2.25342,5.64139
10.0,156.307,59.0696,62.9974,34.2394,2.02856,2.45876,5.61055
