Time (ns),trace,xx,yy,zz,yx,zx,zy
0.0,0.0,0.0,0.0,0.0,0.0,0.0,0.0
0.1,2.0701,0.690191,0.702706,0.6772,-7.8727e-05,-0.00320037,-0.0136714
0.2,4.06668,1.35533,1.39387,1.31749,-0.000647909,-0.00610496,-0.0268599
0.3,6.03642,2.007,2.08437,1.94505,0.000367117,-0.0027568,-0.0385843
0.4,7.97522,2.65715,2.77825,2.53982,-0.00352647,0.00591451,-0.052467
0.5,9.8954,3.30364,3.46643,3.12533,-0.00361256,0.0105381,-0.0598881
0.6,11.7964,3.95352,4.1513,3.69157,-0.00259275,0.0155547,-0.0604239
0.7,13.6738,4.59273,4.83917,4.24193,0.0161761,0.0242423,-0.0743026
0.8,15.5319,5.22752,5.52776,4.77658,0.0322562,0.0280666,-0.0843884
0.9,17.383,5.86933,6.21374,5.2999,0.0526909,0.0456687,-0.10041
1.0,19.2418,6.51567,6.91205,5.8141,0.0658653,0.0717746,-0.116513
1.1,21.0853,7.16664,7.59322,6.3254,0.0792161,0.0818432,-0.135973
1.2,22.9038,7.80087,8.28112,6.8218,0.100422,0.0891092,-0.153066
1.3,24.708,8.43647,8.96253,7.30905,0.129318,0.0959219,-0.171354
1.4,26.5001,9.06384,9.65544,7.78086,0.159535,0.105244,-0.192715
1.5,28.2914,9.67814,10.3714,8.2418,0.189389,0.120269,-0.225511
1.6,30.0892,10.302,11.1012,8.68609,0.214177,0.132225,-0.250533
1.7,31.8932,10.9296,11.8428,9.12082,0.233913,0.146405,-0.280007
1.8,33.7085,11.5571,12.5985,9.55289,0.258157,0.165877,-0.318892
1.9,35.5104,12.1811,13.3541,9.97511,0.27298,0.207077,-0.342319
2.0,37.3252,12.8118,14.1116,10.4018,0.292233,0.24375,-0.369849
2.1,39.0939,13.4181,14.8482,10.8276,0.325683,0.27394,-0.401435
2.2,40.8474,14.0243,15.5612,11.2619,0.357353,0.287343,-0.429592
2.3,42.592,14.6446,16.2829,11.6645,0.392527,0.294212,-0.456651
2.4,44.3509,15.2615,17.0244,12.065,0.424865,0.312534,-0.487047
2.5,46.0939,15.8758,17.7581,12.46,0.448395,0.345114,-0.520655
2.6,47.8435,16.479,18.5088,12.8557,0.481824,0.387632,-0.54421
2.7,49.5835,17.066,19.257,13.2606,0.525997,0.43228,-0.564834
2.8,51.3345,17.6565,20.0174,13.6606,0.569986,0.471696,-0.590054
2.9,53.0879,18.241,20.7862,14.0606,0.62451,0.512209,-0.618629
3.0,54.832,18.8296,21.543,14.4593,0.663014,0.557793,-0.652027
3.1,56.5372,19.4064,22.2784,14.8524,0.691938,0.601201,-0.680495
3.2,58.2289,19.9964,23.0048,15.2278,0.721211,0.639996,-0.717632
3.3,59.9072,20.5931,23.7163,15.5978,0.746954,0.676105,-0.769641
3.4,61.5836,21.1977,24.428,15.9579,0.748576,0.715991,-0.809937
3.5,63.25,21.8059,25.156,16.2881,0.750257,0.763954,-0.850008
3.6,64.8793,22.4012,25.8812,16.597,0.747009,0.823344,-0.88314
3.7,66.4711,22.9859,26.6021,16.8832,0.72467,0.888057,-0.901542
3.8,68.0726,23.5721,27.3303,17.1702,0.693017,0.953779,-0.923296
3.9,69.6532,24.1344,28.0573,17.4615,0.678352,1.02189,-0.930992
4.0,71.1632,24.6852,28.7528,17.7252,0.666587,1.09415,-0.941523
4.1,72.6974,25.2611,29.4479,17.9884,0.658256,1.15798,-0.950953
4.2,74.1912,25.8323,30.1521,18.2069,0.628178,1.21334,-0.942718
4.3,75.6991,26.4398,30.8324,18.4269,0.592982,1.25164,-0.95014
4.4,77.2095,27.0543,31.4949,18.6603,0.564757,1.28652,-0.953649
4.5,78.6751,27.6732,32.1169,18.885,0.555837,1.31207,-0.939301
4.6,80.16,28.306,32.728,19.126,0.557737,1.33637,-0.934362
4.7,81.6605,28.9599,33.3417,19.359,0.524359,1.38415,-0.928893
4.8,83.1472,29.6089,33.9502,19.5881,0.490313,1.43255,-0.938183
4.9,84.6644,30.2561,34.5828,19.8254,0.46157,1.49966,-0.944074
5.0,86.1647,30.8866,35.2124,20.0657,0.423792,1.56033,-0.946606
5.1,87.6852,31.5548,35.8409,20.2895,0.400018,1.62096,-0.936849
5.2,89.2393,32.2552,36.465,20.5191,0.397496,1.7019,-0.916338
5.3,90.7813,32.9538,37.0777,20.7498,0.386221,1.80983,-0.893401
5.4,92.3195,33.6618,37.6773,20.9804,0.361828,1.9106,-0.84206
5.5,93.8438,34.36,38.3028,21.181,0.333247,2.02157,-0.76951
5.6,95.3593,35.0414,38.9136,21.4043,0.307818,2.13162,-0.682947
5.7,96.8688,35.7131,39.5458,21.6098,0.288932,2.24193,-0.609124
5.8,98.3768,36.3652,40.1849,21.8266,0.256215,2.36237,-0.56939
5.9,99.8378,37.0098,40.7877,22.0403,0.253977,2.46901,-0.525856
6.0,101.29,37.6825,41.4037,22.2038,0.277875,2.57033,-0.45924
6.1,102.687,38.3238,42.0231,22.3403,0.26866,2.68549,-0.38418
6.2,104.148,38.9763,42.6664,22.5057,0.303114,2.79753,-0.315355
6.3,105.638,39.6048,43.321,22.7126,0.342617,2.88947,-0.249451
6.4,107.214,40.2817,44.024,22.9082,0.381997,2.99975,-0.181204
6.5,108.824,40.9962,44.7034,23.1242,0.403475,3.14954,-0.144348
6.6,110.411,41.6839,45.4124,23.3145,0.400559,3.29439,-0.17797
6.7,111.921,42.3809,46.1015,23.439,0.396919,3.42933,-0.193116
6.8,113.478,43.0766,46.7607,23.6403,0.40718,3.58928,-0.215344
6.9,115.106,43.8274,47.4594,23.8195,0.470917,3.71296,-0.248389
7.0,116.662,44.5193,48.0884,24.0544,0.524131,3.85097,-0.289472
7.1,118.18,45.2327,48.7078,24.2399,0.598386,4.01399,-0.345051
7.2,119.704,45.965,49.3053,24.4338,0.660336,4.2013,-0.414531
7.3,121.231,46.7007,49.9188,24.6116,0.735984,4.39886,-0.459449
7.4,122.739,47.4078,50.5438,24.7877,0.819899,4.58205,-0.50376
7.5,124.396,48.1522,51.2238,25.0199,0.904886,4.77636,-0.582147
7.6,126.026,48.8296,51.9393,25.2568,0.977423,4.9626,-0.629081
7.7,127.671,49.5159,52.6455,25.5097,1.06838,5.1377,-0.652394
7.8,129.305,50.184,53.328,25.7934,1.12851,5.2797,-0.653949
7.9,130.831,50.831,53.9097,26.0901,1.20755,5.42863,-0.68212
8.0,132.427,51.4983,54.5127,26.4165,1.29041,5.59501,-0.703079
8.1,134.078,52.1868,55.1286,26.7625,1.37313,5.74714,-0.719455
8.2,135.701,52.8182,55.7505,27.1323,1.53282,5.83195,-0.756533
8.3,137.277,53.4379,56.3289,27.5099,1.65526,5.95541,-0.764254
8.4,138.775,54.0497,56.8723,27.8526,1.75702,6.02868,-0.759786
8.5,140.254,54.6975,57.4034,28.1535,1.84979,6.10475,-0.797435
8.6,141.841,55.4544,57.8962,28.4907,1.85997,6.14811,-0.905053
8.7,143.256,56.1209,58.3476,28.7874,1.815,6.11418,-1.01897
8.8,144.664,56.8074,58.8886,28.9677,1.78145,6.09325,-1.0236
8.9,146.128,57.4522,59.413,29.2626,1.73347,6.12229,-1.05967
9.0,147.531,58.1058,59.9841,29.4412,1.61779,6.11893,-1.09722
9.1,148.952,58.8293,60.4195,29.7036,1.5761,6.07913,-1.19096
9.2,150.211,59.5414,60.7473,29.9224,1.47011,5.98887,-1.20871
9.3,151.738,60.4149,61.1692,30.1535,1.35872,6.11269,-1.21595
9.4,153.422,61.364,61.6795,30.378,1.3485,6.29257,-1.24718
9.5,155.105,62.159,62.3604,30.5859,1.37279,6.41103,-1.34827
9.6,157.204,63.2316,63.2413,30.7316,1.44026,6.34425,-1.48518
9.7,159.473,64.3017,64.0919,31.0799,1.31111,6.38023,-1.65761
9.8,161.986,65.35,65.1308,31.5055,1.28664,6.52282,-1.988
9.9,163.695,66.2146,65.6222,31.8583,1.19989,6.45218,-2.2301
10.0,165.183,67.1378,66.1215,31.924,0.872452,6.15946,-2.05104
