Time (ns),trace,xx,yy,zz,yx,zx,zy
0.0,0.0,0.0,0.0,0.0,0.0,0.0,0.0
0.1,2.02837,0.683926,0.684254,0.660184,0.00289101,-0.00849084,-0.00367915
0.2,3.99583,1.36219,1.34931,1.28433,0.00812451,-0.0183476,-0.0139328
0.3,5.9494,2.03932,2.01077,1.8993,0.0231432,-0.0270164,-0.0111413
0.4,7.89948,2.7124,2.68036,2.50671,0.0378764,-0.0496799,-0.0211791
0.5,9.80901,3.36836,3.35745,3.0832,0.0444854,-0.0812285,-0.0206136
0.6,11.6848,4.01487,4.02326,3.64667,0.0415028,-0.10916,-0.0194464
0.7,13.5457,4.65885,4.68593,4.20092,0.0413593,-0.140454,-0.00995395
0.8,15.3816,5.29983,5.34857,4.7332,0.0325082,-0.173443,-0.00816932
0.9,17.1889,5.93309,6.00739,5.24839,0.0280716,-0.196667,0.0066872
1.0,19.0009,6.56833,6.67707,5.75549,0.0256761,-0.217864,0.0363949
1.1,20.8414,7.21782,7.35602,6.26762,0.0372583,-0.241518,0.0670717
1.2,22.6703,7.86475,8.01422,6.79132,0.0376631,-0.275224,0.0878285
1.3,24.477,8.51502,8.66619,7.2958,0.0451668,-0.301025,0.0970161
1.4,26.279,9.16639,9.31527,7.79732,0.0513008,-0.321987,0.101667
1.5,28.094,9.81672,9.96451,8.31276,0.0599192,-0.348214,0.0951979
1.6,29.8687,10.466,10.5982,8.80445,0.0727075,-0.369856,0.0853371
1.7,31.6426,11.1102,11.2445,9.2879,0.102887,-0.396465,0.0733882
1.8,33.4151,11.7515,11.9069,9.75677,0.147074,-0.435816,0.0557461
1.9,35.197,12.3955,12.5876,10.2138,0.192002,-0.466779,0.0382234
2.0,36.9613,13.0335,13.2554,10.6724,0.234032,-0.492594,0.0162937
2.1,38.7028,13.6678,13.9138,11.1211,0.270269,-0.522124,-0.00898973
2.2,40.4471,14.3035,14.5794,11.5642,0.307409,-0.54088,-0.0344581
2.3,42.169,14.925,15.2476,11.9964,0.345613,-0.557608,-0.0601489
2.4,43.8778,15.5362,15.9062,12.4354,0.392401,-0.576526,-0.0746029
2.5,45.5565,16.1544,16.5584,12.8437,0.44231,-0.578431,-0.102991
2.6,47.2419,16.7758,17.2273,13.2388,0.474165,-0.593518,-0.123434
2.7,48.9344,17.3986,17.9064,13.6293,0.505554,-0.607043,-0.149969
2.8,50.622,18.0175,18.5841,14.0204,0.548058,-0.618011,-0.172535
2.9,52.3103,18.6388,19.2727,14.3988,0.581643,-0.635741,-0.202166
3.0,54.0189,19.2673,19.9758,14.7757,0.608857,-0.645471,-0.245683
3.1,55.7304,19.9029,20.6763,15.1513,0.645455,-0.645057,-0.291766
3.2,57.4355,20.5385,21.3767,15.5203,0.687111,-0.649769,-0.33116
3.3,59.1439,21.1777,22.0654,15.9008,0.709889,-0.649813,-0.369593
3.4,60.8113,21.8146,22.7419,16.2548,0.74991,-0.662855,-0.426652
3.5,62.4825,22.464,23.4175,16.601,0.797063,-0.670497,-0.472864
3.6,64.147,23.1176,24.0808,16.9486,0.836695,-0.660584,-0.530496
3.7,65.8245,23.7893,24.7664,17.2688,0.879099,-0.656499,-0.585608
3.8,67.5196,24.4732,25.4396,17.6069,0.916745,-0.657558,-0.625419
3.9,69.1893,25.1503,26.1248,17.9142,0.971837,-0.651599,-0.679316
4.0,70.8359,25.8193,26.8119,18.2047,1.03248,-0.656154,-0.730006
4.1,72.5059,26.4991,27.5077,18.4992,1.11525,-0.657442,-0.777764
4.2,74.1679,27.1827,28.1877,18.7975,1.20022,-0.667506,-0.832405
4.3,75.8137,27.8764,28.855,19.0822,1.30614,-0.690128,-0.873613
4.4,77.4141,28.5655,29.4919,19.3566,1.41575,-0.717531,-0.906906
4.5,79.003,29.2454,30.1287,19.6289,1.51024,-0.753112,-0.938442
4.6,80.6334,29.9345,30.8038,19.8951,1.60533,-0.800528,-0.968922
4.7,82.2842,30.6329,31.4938,20.1574,1.71736,-0.841841,-0.970778
4.8,83.9433,31.3126,32.1915,20.4392,1.84584,-0.879632,-0.969738
4.9,85.5609,31.9649,32.8693,20.7266,1.9721,-0.895351,-0.975688
5.0,87.1885,32.6349,33.5537,20.9999,2.08639,-0.926232,-0.974633
5.1,88.8077,33.3119,34.2302,21.2656,2.20583,-0.975587,-0.94832
5.2,90.394,33.9942,34.9077,21.4921,2.32867,-1.00347,-0.925145
5.3,92.0211,34.664,35.6234,21.7337,2.42997,-1.0219,-0.87473
5.4,93.6724,35.3492,36.3335,21.9897,2.52055,-1.02934,-0.84769
5.5,95.3583,36.0472,37.0563,22.2547,2.61775,-1.04937,-0.821949
5.6,97.0419,36.771,37.7783,22.4927,2.71342,-1.05569,-0.794184
5.7,98.7129,37.4742,38.5079,22.7308,2.78851,-1.0694,-0.776721
5.8,100.381,38.1725,39.2214,22.9873,2.86455,-1.1068,-0.750944
5.9,102.118,38.9008,39.9612,23.2561,2.93271,-1.13927,-0.733705
6.0,103.827,39.6417,40.6982,23.4869,2.99819,-1.18728,-0.711364
6.1,105.552,40.41,41.42,23.7225,3.05992,-1.23987,-0.704637
6.2,107.222,41.1303,42.1412,23.9509,3.11018,-1.272,-0.702097
6.3,108.787,41.7857,42.8558,24.1457,3.14329,-1.27834,-0.681613
6.4,110.409,42.4774,43.5677,24.3638,3.18154,-1.27905,-0.652803
6.5,112.001,43.1615,44.2418,24.5978,3.24055,-1.29317,-0.637344
6.6,113.567,43.8083,44.8964,24.8622,3.28247,-1.3147,-0.638984
6.7,115.066,44.4291,45.5209,25.1162,3.35276,-1.31819,-0.638536
6.8,116.445,44.9702,46.103,25.3721,3.43828,-1.30607,-0.677491
6.9,117.865,45.5279,46.6994,25.6382,3.50329,-1.28433,-0.736398
7.0,119.259,46.1097,47.2508,25.8982,3.56778,-1.27966,-0.766259
7.1,120.678,46.6984,47.8371,26.1427,3.59706,-1.26301,-0.817266
7.2,122.144,47.2897,48.4212,26.4337,3.65604,-1.25918,-0.86147
7.3,123.539,47.8204,48.9882,26.7304,3.72447,-1.23342,-0.913844
7.4,125.01,48.3813,49.5911,27.038,3.78748,-1.19257,-0.9977
7.5,126.494,48.9457,50.1852,27.3629,3.8985,-1.15204,-1.07758
7.6,127.912,49.4874,50.7165,27.7076,4.04818,-1.13856,-1.1104
7.7,129.285,50.0759,51.18,28.029,4.2029,-1.10178,-1.20031
7.8,130.611,50.6765,51.6203,28.3142,4.29973,-1.03122,-1.21909
7.9,131.909,51.1433,52.1077,28.6583,4.45434,-0.978381,-1.18394
8.0,133.157,51.566,52.6123,28.9784,4.54926,-0.914293,-1.14241
8.1,134.402,52.0734,53.0691,29.2594,4.65808,-0.841997,-1.11992
8.2,135.6,52.5587,53.4928,29.5483,4.78497,-0.761409,-1.09103
8.3,136.96,53.0524,54.0527,29.8548,4.92374,-0.745342,-1.0246
8.4,138.574,53.65,54.7214,30.2022,5.02365,-0.745433,-1.09039
8.5,140.081,54.2067,55.3408,30.5331,5.16296,-0.722386,-1.15883
8.6,141.693,54.8598,56.0228,30.8107,5.35659,-0.662138,-1.25029
8.7,143.106,55.4759,56.6366,30.9931,5.57578,-0.648216,-1.27289
8.8,144.37,56.0156,57.1117,31.243,5.68549,-0.651586,-1.22195
8.9,145.495,56.5051,57.6367,31.3536,5.66016,-0.683159,-1.08513
9.0,146.968,57.0229,58.3725,31.5723,5.69174,-0.617058,-0.970099
9.1,148.511,57.5472,59.1276,31.8365,5.74426,-0.508892,-0.928355
9.2,150.232,58.3332,59.8282,32.0707,5.69235,-0.471238,-0.983682
9.3,151.949,59.1928,60.5741,32.1821,5.55622,-0.453986,-1.13829
9.4,153.456,59.8298,61.2457,32.3806,5.50675,-0.461859,-1.28342
9.5,154.862,60.4086,61.864,32.5897,5.55485,-0.529124,-1.41376
9.6,156.583,61.076,62.6972,32.8094,5.76226,-0.601682,-1.52501
9.7,158.133,61.7953,63.5046,32.8332,6.00571,-0.439337,-1.78798
9.8,160.998,63.0004,65.1608,32.8368,6.53966,-0.0196676,-1.87177
9.9,163.215,64.0065,66.4072,32.8015,6.86971,0.33651,-2.02339
10.0,164.04,64.0765,66.7786,33.1845,7.41976,0.78806,-2.14753
