Time (ns),trace,xx,yy,zz,yx,zx,zy
0.1,2.05342,0.699741,0.697084,0.656593,0.00461013,0.00405299,0.004253
0.2,4.07235,1.3928,1.38758,1.29197,-0.000364041,0.0138726,0.0104562
0.3,6.07623,2.08773,2.07837,1.91013,-0.00301214,0.017784,0.0174344
0.4,8.04084,2.78585,2.75788,2.4971,-0.00677877,0.0233253,0.0307312
0.5,9.98973,3.49014,3.42669,3.0729,-0.0193687,0.0310369,0.05839
0.6,11.9365,4.19275,4.09131,3.6524,-0.0345112,0.035979,0.0723735
0.7,13.8579,4.89769,4.7505,4.20975,-0.0450734,0.0438219,0.0841811
0.8,15.7871,5.60942,5.41014,4.76753,-0.0571571,0.0600555,0.0920027
0.9,17.6905,6.30841,6.07778,5.30433,-0.0613254,0.0752336,0.0997482
1.0,19.6051,7.01451,6.74952,5.84111,-0.0740298,0.0882501,0.102887
1.1,21.5049,7.7252,7.41223,6.3675,-0.0768542,0.101181,0.108595
1.2,23.3902,8.42895,8.0696,6.89164,-0.0857613,0.113992,0.11901
1.3,25.2674,9.14337,8.71642,7.40757,-0.104849,0.117991,0.134187
1.4,27.1394,9.84641,9.36821,7.92476,-0.119604,0.127704,0.158381
1.5,28.9944,10.5361,10.0215,8.4368,-0.137124,0.132882,0.179582
1.6,30.8487,11.2274,10.6828,8.93852,-0.145918,0.1443,0.196033
1.7,32.6805,11.922,11.3239,9.43464,-0.161005,0.156325,0.221556
1.8,34.4845,12.6178,11.9566,9.91005,-0.182036,0.172332,0.251987
1.9,36.2728,13.2961,12.5887,10.3881,-0.192144,0.170387,0.28234
2.0,38.0177,13.9586,13.2195,10.8396,-0.208638,0.170637,0.30618
2.1,39.7401,14.6036,13.8452,11.2913,-0.226219,0.181772,0.336606
2.2,41.5003,15.2441,14.4992,11.757,-0.240932,0.19986,0.377132
2.3,43.2662,15.8806,15.1584,12.2272,-0.256102,0.230068,0.412442
2.4,45.0331,16.5211,15.8108,12.7013,-0.273777,0.258571,0.438114
2.5,46.7971,17.1631,16.4783,13.1557,-0.286902,0.285993,0.479454
2.6,48.5438,17.8002,17.1392,13.6045,-0.308076,0.311462,0.519925
2.7,50.2788,18.4308,17.7922,14.0559,-0.332223,0.308221,0.561886
2.8,52.0047,19.0687,18.4406,14.4955,-0.359571,0.305724,0.612473
2.9,53.7547,19.7188,19.1048,14.9311,-0.385412,0.270661,0.65284
3.0,55.4647,20.3547,19.7572,15.3527,-0.408645,0.233033,0.682072
3.1,57.2027,20.9894,20.4236,15.7897,-0.423824,0.189518,0.716014
3.2,58.8968,21.6138,21.0701,16.2128,-0.442258,0.150782,0.748041
3.3,60.566,22.2447,21.7116,16.6097,-0.484439,0.126892,0.763443
3.4,62.2307,22.8877,22.3427,17.0003,-0.529599,0.0978008,0.792326
3.5,63.8579,23.5199,22.9476,17.3905,-0.562834,0.0627844,0.812611
3.6,65.4366,24.1231,23.5323,17.7812,-0.606195,0.0277975,0.823406
3.7,67.0599,24.7533,24.1309,18.1757,-0.660748,0.00149758,0.82528
3.8,68.7025,25.385,24.7259,18.5917,-0.734884,-0.0270434,0.848909
3.9,70.3608,26.0332,25.3293,18.9983,-0.824733,-0.0620877,0.866984
4.0,72.0708,26.6954,25.9501,19.4253,-0.911621,-0.0946332,0.877758
4.1,73.7515,27.37,26.5768,19.8048,-1.00173,-0.114855,0.873076
4.2,75.4486,28.0473,27.2058,20.1956,-1.0854,-0.13266,0.878959
4.3,77.1477,28.7302,27.8331,20.5844,-1.17321,-0.13929,0.880055
4.4,78.8773,29.423,28.4555,20.9988,-1.2661,-0.124593,0.872063
4.5,80.555,30.1181,29.0465,21.3904,-1.33719,-0.137051,0.873196
4.6,82.2225,30.8079,29.6215,21.7931,-1.41343,-0.149578,0.895343
4.7,83.8619,31.4537,30.2133,22.1949,-1.49949,-0.17604,0.915135
4.8,85.4886,32.1049,30.8056,22.578,-1.59374,-0.200821,0.934002
4.9,87.0959,32.7753,31.3979,22.9227,-1.67706,-0.233635,0.932709
5.0,88.7056,33.4454,31.9888,23.2715,-1.74362,-0.24394,0.926532
5.1,90.4016,34.1404,32.6388,23.6224,-1.80597,-0.25644,0.941194
5.2,92.0847,34.8356,33.2707,23.9783,-1.86743,-0.25016,0.955027
5.3,93.8184,35.5519,33.9194,24.3471,-1.9343,-0.22788,0.959556
5.4,95.5382,36.286,34.5427,24.7096,-1.98676,-0.198179,0.967206
5.5,97.3242,37.0617,35.2053,25.0572,-2.05487,-0.173568,0.999454
5.6,99.1431,37.8291,35.8865,25.4276,-2.11818,-0.176842,1.04959
5.7,100.947,38.6005,36.5473,25.7986,-2.16391,-0.195032,1.08574
5.8,102.77,39.4069,37.2037,26.1598,-2.21591,-0.206597,1.1355
5.9,104.573,40.2138,37.8561,26.5028,-2.26266,-0.222486,1.20403
6.0,106.334,41.0143,38.5314,26.7882,-2.3232,-0.237317,1.26616
6.1,108.054,41.7891,39.1891,27.0762,-2.3547,-0.254443,1.31968
6.2,109.718,42.5334,39.8294,27.3551,-2.3784,-0.257406,1.36548
6.3,111.395,43.2581,40.4673,27.6696,-2.4025,-0.271878,1.41998
6.4,113.033,43.9846,41.0994,27.9492,-2.40683,-0.27765,1.49151
6.5,114.664,44.6947,41.7389,28.2302,-2.42214,-0.295354,1.55902
6.6,116.353,45.4428,42.3915,28.5186,-2.44994,-0.334082,1.64176
6.7,118.006,46.1719,43.0022,28.8323,-2.484,-0.344639,1.72911
6.8,119.697,46.9074,43.65,29.1395,-2.51157,-0.360605,1.83432
6.9,121.434,47.6893,44.2942,29.4507,-2.52337,-0.406628,1.94403
7.0,123.164,48.4439,44.9092,29.8106,-2.56431,-0.436651,2.06592
7.1,124.865,49.1931,45.5454,30.1263,-2.58589,-0.46451,2.16561
7.2,126.651,49.9839,46.2044,30.4627,-2.61185,-0.513494,2.26535
7.3,128.38,50.7398,46.8415,30.7987,-2.65161,-0.565619,2.38811
7.4,130.148,51.5277,47.4506,31.1692,-2.7385,-0.587913,2.51885
7.5,131.918,52.3381,48.0927,31.4869,-2.83273,-0.627643,2.65465
7.6,133.767,53.2553,48.7451,31.7667,-2.92567,-0.66792,2.81761
7.7,135.498,54.1076,49.3266,32.0639,-3.02928,-0.669413,2.98854
7.8,137.355,54.8976,50.0323,32.4249,-3.116,-0.682974,3.1622
7.9,139.331,55.7286,50.8305,32.7715,-3.1342,-0.692601,3.33488
8.0,141.338,56.6516,51.6255,33.0609,-3.17739,-0.632289,3.55918
8.1,143.428,57.6011,52.5319,33.2955,-3.24993,-0.570311,3.77182
8.2,145.519,58.574,53.3999,33.5447,-3.32249,-0.551352,3.96633
8.3,147.515,59.4896,54.2435,33.7815,-3.46859,-0.514233,4.14471
8.4,149.514,60.4455,55.1338,33.935,-3.49888,-0.53901,4.3109
8.5,151.596,61.4125,56.1231,34.0605,-3.53518,-0.559388,4.41489
8.6,153.529,62.3666,57.0633,34.0991,-3.60123,-0.53988,4.43973
8.7,155.498,63.3485,57.9523,34.197,-3.5752,-0.533952,4.43048
8.8,157.546,64.3762,58.8613,34.3083,-3.60517,-0.534055,4.50301
8.9,159.503,65.3385,59.7988,34.3658,-3.5649,-0.566366,4.54365
9.0,161.454,66.2407,60.7686,34.445,-3.55605,-0.532566,4.47622
9.1,163.429,67.2381,61.641,34.5496,-3.53897,-0.528496,4.47379
9.2,165.59,68.3758,62.5155,34.6986,-3.46199,-0.630787,4.44193
9.3,167.544,69.4272,63.2391,34.8777,-3.33742,-0.730935,4.41598
9.4,169.425,70.4499,63.934,35.0407,-3.38379,-0.891815,4.44055
9.5,171.62,71.7372,64.8761,35.0067,-3.3825,-0.988022,4.45655
9.6,173.694,73.0371,65.8291,34.8282,-3.228,-0.899568,4.51713
9.7,176.276,74.3907,67.1093,34.7759,-3.05515,-0.762836,4.72074
9.8,178.23,75.3951,68.1195,34.7156,-2.90511,-0.605254,4.83869
9.9,179.532,75.9446,68.9753,34.6122,-2.40955,-0.379672,5.07055
10.0,181.552,76.9768,69.8081,34.7672,-1.71104,-0.0874236,5.4326
10.1,2.0182,0.683564,0.674705,0.659933,0.00494611,-0.0054809,0.00896506
10.2,3.97891,1.36068,1.3278,1.29043,0.016563,-0.00091183,0.0186106
10.3,5.88592,2.02811,1.97123,1.88658,0.0281413,-0.0034244,0.0156491
10.4,7.76964,2.69508,2.61727,2.45729,0.0422004,-0.0066192,0.00257307
10.5,9.66461,3.3652,3.26956,3.02986,0.0636864,-0.00686963,-0.00867457
10.6,11.5511,4.03581,3.92666,3.58865,0.0862844,-0.00269742,-0.00934931
10.7,13.4241,4.7034,4.58521,4.13549,0.119182,-0.00163908,-0.00254109
10.8,15.2865,5.3565,5.25428,4.6757,0.15355,0.00710291,0.00670651
10.9,17.1243,6.0037,5.9286,5.19202,0.192532,0.0148368,0.00684384
11.0,18.9526,6.6489,6.60896,5.69478,0.234657,0.0199653,0.00600353
11.1,20.7669,7.2878,7.2917,6.18737,0.271365,0.0258936,0.000332728
11.2,22.5476,7.90916,7.97252,6.66594,0.312499,0.0321918,-0.0056356
11.3,24.3145,8.51352,8.65273,7.14826,0.351039,0.0516382,-0.00816522
11.4,26.0661,9.11898,9.32835,7.61873,0.384868,0.0682979,-0.00701647
11.5,27.7886,9.71859,9.99711,8.07291,0.410984,0.0708449,0.00189085
11.6,29.4853,10.3028,10.6704,8.51209,0.440487,0.0694351,0.00658087
11.7,31.178,10.8882,11.339,8.95073,0.474683,0.0729641,0.0212726
11.8,32.8398,11.4681,12.0025,9.36922,0.506826,0.0827748,0.0328621
11.9,34.5362,12.0722,12.6699,9.79413,0.537313,0.0937361,0.0521529
12.0,36.2183,12.6745,13.3331,10.2107,0.565272,0.114231,0.0558154
12.1,37.8812,13.2688,13.9836,10.6287,0.582813,0.140578,0.0582072
12.2,39.5372,13.8592,14.6291,11.0489,0.616439,0.162365,0.0493777
12.3,41.144,14.441,15.2373,11.4657,0.647999,0.177297,0.0314959
12.4,42.7661,15.0433,15.8618,11.8609,0.673619,0.20505,0.0158028
12.5,44.3995,15.6517,16.4954,12.2525,0.702919,0.23324,0.00531244
12.6,46.0504,16.2912,17.1299,12.6293,0.730686,0.270826,-0.00782335
12.7,47.7047,16.9336,17.7741,12.9971,0.756448,0.310598,-0.0313739
12.8,49.386,17.5863,18.4344,13.3653,0.77761,0.344598,-0.0461316
12.9,51.0324,18.2087,19.0865,13.7372,0.794977,0.390008,-0.0643262
13.0,52.6631,18.8315,19.7352,14.0965,0.805494,0.443829,-0.0826349
13.1,54.3154,19.46,20.3969,14.4585,0.820064,0.502628,-0.102447
13.2,55.967,20.0969,21.0646,14.8055,0.829809,0.561958,-0.113808
13.3,57.5919,20.7296,21.7138,15.1485,0.847829,0.6142,-0.120983
13.4,59.2116,21.3645,22.3663,15.4809,0.871195,0.653772,-0.121929
13.5,60.8304,22.0174,23.0072,15.8058,0.913292,0.675013,-0.142383
13.6,62.4183,22.6791,23.6396,16.0997,0.967132,0.689911,-0.157061
13.7,64.0061,23.3328,24.2697,16.4036,1.01758,0.696617,-0.172974
13.8,65.5912,23.9801,24.9005,16.7106,1.0785,0.692236,-0.186927
13.9,67.1128,24.6049,25.5064,17.0015,1.14783,0.680647,-0.213067
14.0,68.6302,25.2246,26.1204,17.2853,1.19467,0.676844,-0.225042
14.1,70.1374,25.817,26.7354,17.5851,1.26334,0.672348,-0.234351
14.2,71.6569,26.4143,27.3573,17.8853,1.34869,0.666775,-0.25457
14.3,73.1851,27.0044,27.9822,18.1986,1.42236,0.642112,-0.262675
14.4,74.7389,27.6083,28.6125,18.5182,1.51334,0.619355,-0.272985
14.5,76.3151,28.2273,29.2604,18.8274,1.59446,0.57672,-0.286806
14.6,77.8543,28.8081,29.905,19.1411,1.67341,0.551981,-0.3032
14.7,79.3981,29.3782,30.5725,19.4474,1.74811,0.547743,-0.304634
14.8,80.9013,29.9184,31.2322,19.7506,1.83285,0.554017,-0.304703
14.9,82.42,30.4396,31.8967,20.0838,1.93832,0.561815,-0.310549
15.0,83.9363,30.9649,32.5395,20.4319,2.04943,0.577412,-0.296857
15.1,85.4879,31.5368,33.1873,20.7638,2.13886,0.618034,-0.28033
15.2,87.0195,32.1186,33.8335,21.0675,2.24695,0.638981,-0.272032
15.3,88.5554,32.7016,34.4721,21.3818,2.3423,0.660147,-0.260096
15.4,90.0983,33.3192,35.1157,21.6635,2.44182,0.707475,-0.294986
15.5,91.6407,33.9241,35.7601,21.9565,2.52227,0.732507,-0.302873
15.6,93.1849,34.5283,36.3722,22.2844,2.58904,0.751187,-0.311934
15.7,94.728,35.1346,36.9857,22.6077,2.65547,0.761341,-0.315215
15.8,96.2647,35.782,37.5692,22.9135,2.73813,0.788017,-0.314821
15.9,97.7957,36.4032,38.1385,23.2539,2.81358,0.823285,-0.315232
16.0,99.3601,37.0674,38.6916,23.6011,2.8953,0.831529,-0.314054
16.1,100.972,37.7656,39.243,23.9638,3.02262,0.826231,-0.327777
16.2,102.621,38.5046,39.7984,24.3181,3.15042,0.800732,-0.347448
16.3,104.212,39.2248,40.3513,24.636,3.2866,0.765948,-0.38195
16.4,105.753,39.9276,40.8962,24.9294,3.42075,0.72721,-0.412856
16.5,107.245,40.6222,41.448,25.1752,3.56952,0.656708,-0.443885
16.6,108.672,41.2976,41.9721,25.4024,3.72221,0.595111,-0.481642
16.7,110.124,42.0002,42.4856,25.6385,3.8811,0.580203,-0.516346
16.8,111.608,42.7033,43.0233,25.8814,3.99428,0.566452,-0.525713
16.9,113.12,43.3881,43.5971,26.1351,4.1022,0.576316,-0.554354
17.0,114.615,44.0422,44.1967,26.3765,4.21159,0.621638,-0.593993
17.1,116.12,44.6766,44.7711,26.6722,4.30691,0.681599,-0.637885
17.2,117.57,45.2837,45.3359,26.9508,4.37531,0.769639,-0.676783
17.3,119.004,45.8483,45.888,27.2673,4.4761,0.870814,-0.692856
17.4,120.316,46.3987,46.3759,27.5418,4.59389,0.942315,-0.694242
17.5,121.616,46.9552,46.87,27.791,4.69887,1.00724,-0.705639
17.6,122.84,47.475,47.3439,28.0211,4.79004,1.0701,-0.676301
17.7,124.043,47.9159,47.8316,28.2956,4.84009,1.07005,-0.631513
17.8,125.395,48.4819,48.349,28.5636,4.95172,1.10185,-0.55107
17.9,126.841,49.0907,48.8716,28.8791,5.08388,1.14298,-0.452488
18.0,128.327,49.7258,49.4038,29.1975,5.15899,1.18789,-0.348145
18.1,129.865,50.4173,49.8802,29.5678,5.21051,1.22293,-0.242975
18.2,131.439,51.1008,50.4636,29.8744,5.26878,1.27406,-0.138019
18.3,133.019,51.8145,51.0333,30.1713,5.35972,1.35922,0.0738775
18.4,134.578,52.4781,51.6038,30.496,5.50902,1.45387,0.229167
18.5,136.077,53.102,52.09,30.8849,5.66537,1.61757,0.42279
18.6,137.65,53.7059,52.7025,31.2413,5.86225,1.79637,0.704064
18.7,139.235,54.381,53.2655,31.5889,6.00232,1.9349,0.966094
18.8,140.617,55.0943,53.6652,31.8573,6.13378,2.07383,1.19605
18.9,141.751,55.6729,53.9811,32.0971,6.24836,2.1991,1.37939
19.0,143.195,56.3447,54.4174,32.4326,6.34985,2.23167,1.61193
19.1,144.626,56.9602,54.88,32.7857,6.52741,2.32929,1.88021
19.2,146.075,57.4821,55.4772,33.116,6.63807,2.41128,2.19225
19.3,147.694,58.2146,56.0886,33.3912,6.9222,2.35528,2.48958
19.4,149.188,58.8116,56.7648,33.612,7.27204,2.37217,2.83844
19.5,150.404,59.4826,57.2332,33.6878,7.60027,2.30799,3.03766
19.6,151.759,60.2192,57.7557,33.7841,8.00347,2.32724,3.13167
19.7,153.015,61.0432,58.2929,33.6789,8.39978,2.4123,3.32338
19.8,154.451,62.0272,58.9744,33.4492,8.63945,2.62691,3.29308
19.9,155.372,62.7648,59.2633,33.344,8.68988,2.81717,3.49988
20.0,157.13,63.9327,59.3593,33.8376,7.97777,3.17409,4.06481
20.1,2.04878,0.697392,0.686762,0.664628,-0.0117552,-0.0114153,0.00464051
20.2,4.07281,1.39889,1.36373,1.3102,-0.0282393,-0.0138689,0.00428366
20.3,6.05126,2.10111,2.01936,1.93079,-0.0495911,-0.0195437,0.00261843
20.4,8.00814,2.80178,2.66601,2.54036,-0.0703339,-0.0133752,0.010287
20.5,9.9473,3.49082,3.31347,3.14302,-0.0856998,-0.0196595,0.0185008
20.6,11.8923,4.18405,3.9705,3.73778,-0.0939927,-0.0242946,0.0179164
20.7,13.8399,4.88749,4.62936,4.32302,-0.102489,-0.0260432,0.0181213
20.8,15.7777,5.58814,5.29314,4.89637,-0.119729,-0.0281287,0.0168909
20.9,17.7026,6.28512,5.95052,5.46694,-0.130579,-0.0224334,0.0151432
21.0,19.617,6.98083,6.6072,6.02897,-0.130493,-0.0176668,0.0232629
21.1,21.5341,7.67058,7.28134,6.5822,-0.123655,-0.0205659,0.0279987
21.2,23.4406,8.3524,7.95358,7.13464,-0.118025,-0.0288303,0.0323935
21.3,25.3512,9.05124,8.61678,7.68318,-0.126009,-0.0251161,0.0421479
21.4,27.2591,9.75159,9.28276,8.22469,-0.140397,-0.0123566,0.0502121
21.5,29.1577,10.4585,9.9298,8.76939,-0.166959,-0.00530039,0.0721392
21.6,31.0396,11.1667,10.5654,9.30753,-0.198439,0.00070865,0.0875813
21.7,32.913,11.8763,11.1957,9.84104,-0.219473,-0.00346107,0.110637
21.8,34.7833,12.5784,11.8267,10.3782,-0.244439,-0.00239692,0.135283
21.9,36.6194,13.2781,12.4515,10.8898,-0.260783,0.00207326,0.152878
22.0,38.4419,13.9662,13.0773,11.3984,-0.274529,0.0178112,0.164464
22.1,40.2731,14.6626,13.706,11.9045,-0.291514,0.0398488,0.184274
22.2,42.1067,15.3573,14.3427,12.4067,-0.322062,0.067946,0.200854
22.3,43.9327,16.0516,14.9674,12.9137,-0.352784,0.0910687,0.219284
22.4,45.7559,16.7447,15.6003,13.4109,-0.392961,0.11488,0.245128
22.5,47.5622,17.4304,16.2243,13.9075,-0.429324,0.136999,0.276705
22.6,49.3694,18.1099,16.8599,14.3997,-0.462607,0.152288,0.288814
22.7,51.2058,18.7933,17.5164,14.8961,-0.489363,0.187557,0.311757
22.8,53.0281,19.4712,18.1703,15.3867,-0.517214,0.22558,0.35125
22.9,54.8668,20.1586,18.8409,15.8674,-0.558632,0.251483,0.389084
23.0,56.7197,20.8707,19.5145,16.3344,-0.594797,0.279775,0.433033
23.1,58.5911,21.5887,20.2193,16.7831,-0.645604,0.311259,0.467947
23.2,60.4731,22.3267,20.9233,17.2231,-0.712156,0.310701,0.518641
23.3,62.3559,23.0574,21.6349,17.6636,-0.781991,0.327629,0.575535
23.4,64.2007,23.7696,22.3493,18.0818,-0.851818,0.332087,0.625788
23.5,66.0534,24.496,23.0553,18.5021,-0.922123,0.35515,0.669522
23.6,67.8904,25.2065,23.7665,18.9173,-0.983659,0.374305,0.707324
23.7,69.748,25.9223,24.4967,19.3291,-1.04263,0.389119,0.73765
23.8,71.6027,26.6497,25.2325,19.7205,-1.10057,0.403447,0.76676
23.9,73.4445,27.3693,25.9564,20.1189,-1.1494,0.433813,0.793783
24.0,75.3013,28.0851,26.6836,20.5327,-1.18204,0.457741,0.819555
24.1,77.1704,28.8066,27.4072,20.9566,-1.23256,0.47194,0.829432
24.2,79.0675,29.5361,28.1534,21.378,-1.29995,0.49478,0.84325
24.3,80.9674,30.2458,28.9124,21.8092,-1.36683,0.492,0.854739
24.4,82.8467,30.94,29.6734,22.2333,-1.40969,0.508686,0.865312
24.5,84.6902,31.6062,30.4433,22.6407,-1.44816,0.529116,0.864468
24.6,86.4919,32.2434,31.1999,23.0486,-1.4708,0.553235,0.852448
24.7,88.3063,32.869,31.9775,23.4598,-1.4946,0.569194,0.825732
24.8,90.1119,33.5177,32.7447,23.8496,-1.53719,0.569608,0.796646
24.9,91.8592,34.1603,33.4869,24.2119,-1.57781,0.577778,0.79574
25.0,93.6029,34.7987,34.2383,24.5659,-1.60833,0.579397,0.779729
25.1,95.353,35.4462,35.0099,24.8969,-1.64918,0.594056,0.747144
25.2,97.0946,36.0905,35.7419,25.2623,-1.72779,0.597385,0.728368
25.3,98.8264,36.7656,36.4439,25.6169,-1.79812,0.613614,0.719189
25.4,100.504,37.4177,37.1487,25.9381,-1.85315,0.644821,0.698355
25.5,102.202,38.0655,37.8712,26.2651,-1.93759,0.687004,0.696118
25.6,103.907,38.7259,38.5785,26.6029,-2.01605,0.720399,0.676481
25.7,105.578,39.3785,39.2768,26.9226,-2.09509,0.737617,0.664188
25.8,107.163,39.9869,39.9636,27.2128,-2.18744,0.769974,0.648208
25.9,108.794,40.6236,40.6512,27.519,-2.27687,0.815833,0.641156
26.0,110.38,41.2219,41.3369,27.8215,-2.40723,0.852518,0.62607
26.1,112.046,41.8797,42.0698,28.096,-2.55123,0.876299,0.597981
26.2,113.691,42.5561,42.7716,28.363,-2.68263,0.922818,0.587415
26.3,115.277,43.2125,43.4506,28.6142,-2.80386,0.973786,0.540683
26.4,116.915,43.9617,44.1255,28.8279,-2.95086,1.03066,0.492662
26.5,118.523,44.7123,44.7613,29.0497,-3.07688,1.09428,0.437042
26.6,120.115,45.4563,45.3708,29.2876,-3.19695,1.19712,0.347355
26.7,121.771,46.2444,45.9933,29.5328,-3.32874,1.29237,0.233503
26.8,123.35,46.9874,46.6325,29.7297,-3.42249,1.40858,0.15084
26.9,124.927,47.7287,47.2617,29.9366,-3.49184,1.52441,0.0818263
27.0,126.503,48.5243,47.8762,30.1027,-3.55985,1.63131,0.02284
27.1,128.05,49.304,48.4908,30.2551,-3.56219,1.7475,-0.0357439
27.2,129.586,50.0692,49.0682,30.449,-3.5378,1.79238,-0.0851762
27.3,131.109,50.8329,49.659,30.6167,-3.57794,1.81574,-0.144182
27.4,132.597,51.5764,50.2294,30.791,-3.58875,1.83018,-0.195855
27.5,134.035,52.2752,50.7663,30.9934,-3.54659,1.83285,-0.267826
27.6,135.558,53.0259,51.3308,31.2018,-3.52968,1.77933,-0.33496
27.7,136.977,53.7255,51.889,31.3624,-3.42999,1.70432,-0.331488
27.8,138.407,54.3813,52.4812,31.5445,-3.32157,1.63689,-0.338031
27.9,139.836,55.0465,53.0785,31.7116,-3.19401,1.57914,-0.375098
28.0,141.238,55.5848,53.6884,31.9648,-3.07904,1.54117,-0.408396
28.1,142.79,56.1736,54.3393,32.2773,-3.04516,1.55051,-0.43398
28.2,144.453,56.8735,54.9769,32.6026,-3.0983,1.58746,-0.476669
28.3,146.187,57.5917,55.6016,32.9939,-3.11872,1.64375,-0.549262
28.4,147.701,58.2171,56.115,33.369,-3.18918,1.6797,-0.56842
28.5,149.093,58.9333,56.605,33.5551,-3.28071,1.71166,-0.556009
28.6,150.418,59.573,57.0802,33.7647,-3.39226,1.73592,-0.487326
28.7,151.87,60.253,57.6918,33.9253,-3.51414,1.71908,-0.491562
28.8,153.374,60.8802,58.3503,34.1439,-3.65289,1.64996,-0.513076
28.9,154.97,61.5815,59.0227,34.3658,-3.77058,1.59696,-0.472273
29.0,156.495,62.4182,59.6049,34.4718,-3.89028,1.51005,-0.425054
29.1,157.749,63.1226,60.1093,34.5171,-3.85556,1.54486,-0.364968
29.2,158.947,63.7509,60.5994,34.5969,-3.86172,1.67168,-0.231453
29.3,160.151,64.3273,61.1062,34.7173,-3.68226,1.81717,-0.135596
29.4,161.387,64.9251,61.757,34.7052,-3.51478,1.99123,-0.0451974
29.5,162.782,65.4176,62.5996,34.7651,-3.32472,2.35077,0.132928
29.6,164.327,66.0196,63.5493,34.7581,-3.43822,2.9042,0.117694
29.7,165.524,66.5886,64.414,34.5216,-3.59104,3.25481,0.264545
29.8,166.755,67.2332,64.9055,34.6166,-3.68011,3.56893,0.506268
29.9,168.244,68.027,65.2878,34.9291,-3.83707,3.67836,0.521483
30.0,169.009,68.3984,65.0732,35.5379,-3.51022,3.39503,0.597879
30.1,2.05631,0.691228,0.70231,0.662769,-0.00161017,0.00498627,-0.00535237
30.2,4.06572,1.37525,1.39083,1.29964,-0.00223203,0.00710485,-0.00393597
30.3,6.07031,2.05806,2.08316,1.92909,-0.00872127,0.0138514,-0.0126857
30.4,8.06041,2.74917,2.76659,2.54465,-0.0151754,0.0266072,-0.0167028
30.5,10.0152,3.4285,3.44226,3.14441,-0.0109305,0.0313898,-0.0214019
30.6,11.944,4.10408,4.10272,3.73715,-0.00662041,0.028767,-0.025499
30.7,13.881,4.79349,4.76481,4.32274,-1.91137e-05,0.0351945,-0.0401904
30.8,15.7956,5.47598,5.4291,4.89051,0.00576855,0.0373604,-0.0562459
30.9,17.7047,6.16117,6.09861,5.4449,-0.00624395,0.0440743,-0.0698477
31.0,19.5942,6.84037,6.7639,5.98997,-0.0223054,0.0432384,-0.0834288
31.1,21.4752,7.49717,7.45196,6.52605,-0.0302034,0.0455927,-0.105912
31.2,23.3272,8.14572,8.12869,7.05284,-0.0389043,0.0509557,-0.130268
