Time (ns),trace,xx,yy,zz,yx,zx,zy
0.0,0.0,0.0,0.0,0.0,0.0,0.0,0.0
0.1,2.07565,0.702216,0.694102,0.679332,-0.00367924,0.00235555,-0.00186071
0.2,4.08888,1.40149,1.3739,1.31349,0.00400623,-0.00711482,-0.00793568
0.3,6.08175,2.09246,2.0429,1.94639,0.0122547,-0.0267573,-0.0165619
0.4,8.06295,2.78422,2.70491,2.57383,0.0133896,-0.0607271,-0.0329691
0.5,10.063,3.48376,3.38911,3.19013,0.0165832,-0.0920044,-0.0504577
0.6,12.0358,4.16002,4.07308,3.80271,0.0150999,-0.129193,-0.0714215
0.7,13.9987,4.84688,4.75194,4.39984,0.0143534,-0.163172,-0.0844741
0.8,15.9687,5.55114,5.43233,4.98526,0.0101978,-0.200946,-0.0896959
0.9,17.9288,6.24075,6.12718,5.56082,0.0139155,-0.234774,-0.102698
1.0,19.8575,6.9227,6.80313,6.13167,0.0263847,-0.273295,-0.119311
1.1,21.7655,7.58675,7.48287,6.69589,0.0390723,-0.299026,-0.131121
1.2,23.6835,8.25703,8.17817,7.24831,0.0495057,-0.332602,-0.132563
1.3,25.5945,8.93002,8.88448,7.78004,0.0680378,-0.361924,-0.128039
1.4,27.488,9.59347,9.58799,8.30652,0.084047,-0.398731,-0.117546
1.5,29.3413,10.2506,10.2842,8.80644,0.101574,-0.426529,-0.0998775
1.6,31.185,10.9146,10.981,9.28943,0.115553,-0.444035,-0.0769495
1.7,33.0087,11.5759,11.6734,9.75935,0.121865,-0.452677,-0.0586625
1.8,34.7996,12.2338,12.3664,10.1994,0.136269,-0.465374,-0.0389073
1.9,36.5769,12.8889,13.066,10.622,0.152261,-0.478029,-0.0216991
2.0,38.3478,13.5427,13.7769,11.0283,0.166166,-0.480631,-0.00170421
2.1,40.1147,14.1949,14.4803,11.4395,0.15529,-0.494096,0.0230739
2.2,41.878,14.8569,15.1801,11.841,0.141243,-0.518421,0.0443014
2.3,43.6328,15.5151,15.881,12.2367,0.121073,-0.541094,0.0596445
2.4,45.3908,16.1852,16.5649,12.6407,0.0997645,-0.567534,0.0738257
2.5,47.1491,16.8607,17.2458,13.0426,0.0767573,-0.598389,0.0834897
2.6,48.9427,17.575,17.9322,13.4356,0.053624,-0.633182,0.0828173
2.7,50.7427,18.3176,18.5936,13.8315,0.0457371,-0.671801,0.067245
2.8,52.5262,19.0515,19.2594,14.2153,0.0298043,-0.721917,0.0403046
2.9,54.3079,19.7687,19.9231,14.616,0.00948598,-0.763404,0.0204033
3.0,56.0411,20.4718,20.5732,14.9961,-0.0100172,-0.802786,-0.00872149
3.1,57.7528,21.151,21.2217,15.3802,-0.0337298,-0.844788,-0.0409628
3.2,59.4442,21.8211,21.8692,15.7538,-0.0662822,-0.886116,-0.0679766
3.3,61.1607,22.4992,22.547,16.1145,-0.10294,-0.933188,-0.0979984
3.4,62.9095,23.1637,23.2693,16.4766,-0.148293,-0.985564,-0.122201
3.5,64.6268,23.8309,23.9787,16.8172,-0.214241,-1.02964,-0.155314
3.6,66.295,24.4656,24.6694,17.1599,-0.283731,-1.06783,-0.192618
3.7,67.9334,25.1039,25.3362,17.4934,-0.351192,-1.10556,-0.223179
3.8,69.5605,25.7492,25.9808,17.8305,-0.4197,-1.15616,-0.249434
3.9,71.1618,26.4039,26.6181,18.1398,-0.505025,-1.19434,-0.265875
4.0,72.7375,27.0466,27.2438,18.4472,-0.587811,-1.23224,-0.270007
4.1,74.3332,27.6932,27.8911,18.7489,-0.662182,-1.27465,-0.262466
4.2,75.9326,28.3604,28.5408,19.0315,-0.747199,-1.31209,-0.275578
4.3,77.524,29.0297,29.184,19.3103,-0.837565,-1.35155,-0.294122
4.4,79.0909,29.6925,29.8326,19.5658,-0.913131,-1.37607,-0.317631
4.5,80.6028,30.3198,30.4557,19.8273,-0.977213,-1.40216,-0.350215
4.6,82.1108,30.9616,31.0605,20.0887,-1.04542,-1.43713,-0.39455
4.7,83.633,31.6306,31.6544,20.348,-1.11732,-1.4963,-0.435306
4.8,85.149,32.2723,32.2845,20.5922,-1.19083,-1.57893,-0.465554
4.9,86.6908,32.917,32.9199,20.8539,-1.26433,-1.66339,-0.494122
5.0,88.2814,33.5742,33.5782,21.129,-1.33098,-1.76639,-0.524056
5.1,89.857,34.2276,34.2295,21.3999,-1.37897,-1.86124,-0.547785
5.2,91.4263,34.8716,34.8679,21.6869,-1.40062,-1.98066,-0.560572
5.3,92.9386,35.5149,35.4841,21.9396,-1.39673,-2.10005,-0.572053
5.4,94.4614,36.1831,36.0573,22.221,-1.40436,-2.22256,-0.574001
5.5,95.9982,36.8614,36.6346,22.5022,-1.40633,-2.36168,-0.567601
5.6,97.5336,37.5452,37.2248,22.7637,-1.39562,-2.48092,-0.566863
5.7,99.0819,38.2302,37.8247,23.0271,-1.36211,-2.59074,-0.543114
5.8,100.61,38.9059,38.43,23.2743,-1.30996,-2.69595,-0.520039
5.9,102.123,39.5606,39.0483,23.5142,-1.2241,-2.8222,-0.494281
6.0,103.686,40.2278,39.6899,23.7678,-1.14471,-2.91545,-0.488126
6.1,105.301,40.9074,40.3652,24.028,-1.0511,-2.99583,-0.470802
6.2,106.928,41.586,41.0525,24.29,-0.962033,-3.0612,-0.473991
6.3,108.527,42.2898,41.6889,24.548,-0.861988,-3.1198,-0.463158
6.4,110.103,42.9996,42.3084,24.7953,-0.762116,-3.16223,-0.446192
6.5,111.725,43.7364,42.9422,25.0468,-0.662858,-3.2163,-0.432025
6.6,113.373,44.5258,43.5631,25.2845,-0.531148,-3.28098,-0.398436
6.7,114.964,45.3114,44.1497,25.5034,-0.402245,-3.3354,-0.381779
6.8,116.482,46.065,44.6996,25.717,-0.254449,-3.38639,-0.325135
6.9,118.012,46.8224,45.269,25.9201,-0.107325,-3.43435,-0.295177
7.0,119.579,47.6177,45.8161,26.1453,0.03418,-3.47157,-0.271207
7.1,121.2,48.441,46.3904,26.3688,0.1639,-3.49775,-0.265573
7.2,122.878,49.2779,46.9613,26.6383,0.276293,-3.54621,-0.256379
7.3,124.544,50.0725,47.5462,26.9257,0.416732,-3.58337,-0.23979
7.4,126.231,50.9048,48.1106,27.2158,0.577597,-3.60957,-0.176424
7.5,128.02,51.7201,48.7449,27.5552,0.677808,-3.62203,-0.163154
7.6,129.876,52.5775,49.3739,27.9246,0.738506,-3.6039,-0.126774
7.7,131.635,53.4635,49.9415,28.2298,0.757016,-3.58721,-0.136896
7.8,133.345,54.3051,50.5254,28.5141,0.814177,-3.5386,-0.156854
7.9,135.009,55.1255,51.1239,28.7602,0.887374,-3.47095,-0.21657
8.0,136.709,55.9586,51.7039,29.0464,1.00284,-3.43239,-0.24535
8.1,138.377,56.7582,52.2673,29.3515,1.13677,-3.38346,-0.300731
8.2,140.126,57.6178,52.833,29.6749,1.27416,-3.28889,-0.390684
8.3,141.87,58.4774,53.4383,29.9544,1.44836,-3.16278,-0.491075
8.4,143.577,59.4307,54.0077,30.1383,1.56777,-3.03084,-0.587414
8.5,145.258,60.3157,54.532,30.4104,1.70935,-2.93433,-0.707197
8.6,146.909,61.1836,55.0144,30.7112,1.80533,-2.89784,-0.806135
8.7,148.501,62.1628,55.4202,30.9178,1.83991,-2.8956,-0.878601
8.8,150.215,63.0927,55.9877,31.1343,1.85382,-2.94998,-0.935547
8.9,152.033,64.183,56.5248,31.3251,1.77613,-3.03642,-1.0736
9.0,153.676,65.1795,56.9731,31.5233,1.65826,-3.13344,-1.24241
9.1,155.28,66.253,57.2849,31.7417,1.58209,-3.12393,-1.29701
9.2,156.681,67.0332,57.7944,31.8533,1.54152,-3.07351,-1.46907
9.3,157.89,67.5715,58.3499,31.9681,1.61121,-2.8958,-1.53464
9.4,158.995,67.9252,58.9407,32.1295,1.86648,-2.75369,-1.73669
9.5,160.32,68.5033,59.686,32.1308,2.15061,-2.85079,-1.97317
9.6,161.458,69.1135,60.3821,31.9627,2.62154,-2.83706,-2.09131
9.7,163.024,70.089,60.8915,32.043,2.98436,-2.57081,-2.22002
9.8,164.582,70.7836,61.5354,32.2628,2.97751,-2.5504,-2.49356
9.9,165.626,71.0913,61.9508,32.584,3.0104,-2.66243,-2.82839
10.0,166.449,71.3108,62.3315,32.8066,2.8347,-2.36132,-2.46421
