Time (ns),trace,xx,yy,zz,yx,zx,zy
0.0,0.0,0.0,0.0,0.0,0.0,0.0,0.0
0.1,2.03131,0.690857,0.681389,0.659069,0.000204763,-0.0106205,-0.00105937
0.2,3.99137,1.36966,1.34747,1.27424,-0.00428943,-0.0182515,-0.00235972
0.3,5.93737,2.04163,2.01924,1.87651,-0.00914748,-0.0229861,-0.00739553
0.4,7.8765,2.71415,2.69825,2.46411,-0.00953095,-0.030088,-0.0133495
0.5,9.79339,3.3787,3.37651,3.03819,-0.0161488,-0.0309374,-0.0160974
0.6,11.6934,4.04601,4.03783,3.60958,-0.0120996,-0.0291726,-0.0209049
0.7,13.568,4.70715,4.69461,4.16625,-0.00541807,-0.0191716,-0.0268062
0.8,15.4279,5.36626,5.34822,4.71344,-0.00782222,-0.0140331,-0.0327623
0.9,17.2703,6.0143,5.99417,5.26181,-0.0217081,-0.00814372,-0.0384306
1.0,19.0831,6.66614,6.6253,5.79163,-0.0343453,-0.00805394,-0.0294726
1.1,20.8745,7.30578,7.25294,6.31581,-0.038535,-0.0114809,-0.0166053
1.2,22.6594,7.95426,7.87858,6.82653,-0.0337598,-0.0183087,-0.011998
1.3,24.4184,8.58767,8.51189,7.31888,-0.0326013,-0.0209465,0.00221371
1.4,26.1545,9.21156,9.14474,7.79819,-0.0389388,-0.030005,0.0202078
1.5,27.8482,9.81776,9.75965,8.27075,-0.0288672,-0.0421453,0.0429667
1.6,29.5588,10.4291,10.3857,8.74396,-0.0113251,-0.0589388,0.0723818
1.7,31.267,11.0544,11.0038,9.20884,-0.00251405,-0.0817643,0.11177
1.8,32.983,11.6885,11.6196,9.67497,0.00719762,-0.11093,0.143955
1.9,34.6929,12.3454,12.2223,10.1252,0.0227348,-0.134642,0.169581
2.0,36.402,13.0028,12.8336,10.5655,0.0277669,-0.15856,0.194553
2.1,38.0847,13.6612,13.44,10.9836,0.0377378,-0.19089,0.223901
2.2,39.7495,14.3021,14.0531,11.3943,0.0471486,-0.230048,0.246907
2.3,41.4069,14.9478,14.6765,11.7827,0.0457725,-0.273487,0.279457
2.4,43.0626,15.5776,15.3021,12.1829,0.0578048,-0.300491,0.317175
2.5,44.7173,16.197,15.9405,12.5799,0.0613218,-0.336577,0.360627
2.6,46.3668,16.8259,16.57,12.9709,0.0742787,-0.359933,0.389195
2.7,48.0505,17.4672,17.2198,13.3634,0.0954156,-0.379265,0.410641
2.8,49.6913,18.1056,17.8567,13.729,0.109927,-0.410572,0.428044
2.9,51.3511,18.752,18.504,14.0951,0.117985,-0.448025,0.451861
3.0,53.0223,19.3899,19.1681,14.4643,0.113316,-0.479527,0.466545
3.1,54.6873,20.0324,19.8131,14.8418,0.10572,-0.496517,0.491701
3.2,56.3464,20.6573,20.4622,15.227,0.0949309,-0.511353,0.513175
3.3,58.0086,21.2835,21.1021,15.623,0.0839537,-0.51956,0.53126
3.4,59.6462,21.9021,21.7297,16.0144,0.075626,-0.529845,0.544565
3.5,61.2447,22.5106,22.3487,16.3854,0.087497,-0.526208,0.550511
3.6,62.8154,23.1254,22.9572,16.7329,0.0812904,-0.502493,0.567885
3.7,64.4076,23.7745,23.5447,17.0884,0.0563897,-0.471551,0.577247
3.8,66.0059,24.4078,24.1556,17.4425,0.043843,-0.442049,0.584435
3.9,67.5845,25.0298,24.7534,17.8013,0.0222575,-0.418542,0.570319
4.0,69.1942,25.6572,25.3525,18.1844,-0.000838983,-0.395756,0.545403
4.1,70.8248,26.2875,25.9627,18.5746,-0.0349451,-0.347803,0.537781
4.2,72.4686,26.9126,26.5972,18.9587,-0.0474173,-0.312595,0.526958
4.3,74.1244,27.5751,27.2123,19.3371,-0.0607869,-0.298968,0.517842
4.4,75.7844,28.2177,27.8264,19.7403,-0.0648794,-0.263068,0.505219
4.5,77.4287,28.8788,28.4376,20.1123,-0.068653,-0.21987,0.505095
4.6,79.0348,29.5214,29.021,20.4924,-0.0833316,-0.192139,0.500763
4.7,80.6121,30.1684,29.6032,20.8405,-0.0895278,-0.152486,0.492161
4.8,82.228,30.8205,30.2195,21.188,-0.115388,-0.125879,0.490708
4.9,83.8406,31.4891,30.8285,21.523,-0.146125,-0.109464,0.48631
5.0,85.4796,32.1741,31.4395,21.866,-0.171515,-0.10451,0.482213
5.1,87.092,32.865,32.0226,22.2044,-0.169435,-0.101934,0.458541
5.2,88.6878,33.5652,32.5915,22.531,-0.170468,-0.0985526,0.465763
5.3,90.2806,34.269,33.1689,22.8427,-0.177165,-0.10107,0.484574
5.4,91.871,34.9706,33.7706,23.1298,-0.164091,-0.099852,0.491481
5.5,93.4731,35.6969,34.3601,23.4161,-0.18217,-0.110966,0.507701
5.6,95.0364,36.4285,34.9232,23.6847,-0.17045,-0.115279,0.542615
5.7,96.5762,37.1542,35.4799,23.9421,-0.158042,-0.13516,0.584552
5.8,98.1214,37.895,36.0373,24.1891,-0.155816,-0.191321,0.610184
5.9,99.6703,38.6579,36.5796,24.4329,-0.166794,-0.26893,0.64148
6.0,101.284,39.4628,37.1451,24.676,-0.183267,-0.337308,0.670882
6.1,102.879,40.2481,37.7069,24.9243,-0.184838,-0.39168,0.690372
6.2,104.474,41.0199,38.298,25.156,-0.190382,-0.458733,0.68709
6.3,106.033,41.7635,38.8637,25.4056,-0.171746,-0.533237,0.677019
6.4,107.599,42.4875,39.4112,25.6999,-0.134674,-0.591905,0.678393
6.5,109.127,43.2087,39.9148,26.0034,-0.0883814,-0.634253,0.680818
6.6,110.577,43.9164,40.3787,26.2822,-0.0185397,-0.677114,0.67027
6.7,111.926,44.576,40.7912,26.5588,0.0923075,-0.713323,0.636147
6.8,113.298,45.247,41.2215,26.8295,0.157402,-0.753439,0.603033
6.9,114.67,45.9079,41.6765,27.0855,0.184676,-0.805103,0.598055
7.0,115.876,46.5059,42.0517,27.3184,0.194484,-0.859546,0.580223
7.1,117.15,47.164,42.4316,27.5541,0.224595,-0.883682,0.515662
7.2,118.473,47.7811,42.8155,27.8767,0.248326,-0.925251,0.457803
7.3,119.821,48.4155,43.1549,28.2508,0.275301,-0.938078,0.400362
7.4,121.145,49.0069,43.5556,28.5827,0.335406,-0.959565,0.371496
7.5,122.531,49.6048,44.0205,28.9055,0.40367,-0.970316,0.341078
7.6,123.914,50.1327,44.5204,29.2611,0.426245,-0.988409,0.279156
7.7,125.216,50.5595,45.042,29.6147,0.458227,-1.02453,0.246164
7.8,126.554,50.9807,45.5577,30.0155,0.47518,-1.00645,0.261712
7.9,127.946,51.4263,46.0613,30.4579,0.470481,-1.01317,0.264243
8.0,129.361,51.8582,46.5969,30.9055,0.505183,-1.04045,0.238091
8.1,130.615,52.2332,47.1278,31.2539,0.51716,-1.10101,0.228357
8.2,131.718,52.5524,47.5949,31.5705,0.490529,-1.16463,0.265618
8.3,132.833,52.907,48.0834,31.8427,0.503794,-1.21032,0.290989
8.4,133.987,53.3298,48.5571,32.1002,0.51879,-1.24748,0.314633
8.5,135.271,53.8803,49.0675,32.3229,0.561069,-1.2571,0.28967
8.6,136.651,54.4517,49.6487,32.5507,0.592013,-1.19844,0.271708
8.7,138.095,55.0738,50.2258,32.7957,0.662534,-1.09836,0.302431
8.8,139.667,55.7234,50.8896,33.0541,0.736446,-0.942537,0.215985
8.9,141.279,56.4496,51.615,33.2144,0.78857,-0.813331,0.112822
9.0,142.838,57.2064,52.3032,33.3279,0.791381,-0.685158,0.0282669
9.1,144.452,57.8914,53.0571,33.5031,0.927838,-0.602172,0.0112594
9.2,146.185,58.5479,53.8667,33.77,1.14492,-0.500681,0.0653097
9.3,148.004,59.4232,54.682,33.8988,1.39086,-0.352486,0.17569
9.4,149.903,60.4276,55.4325,34.0429,1.56237,-0.278058,0.121527
9.5,151.637,61.412,56.0697,34.1558,1.69968,-0.201986,0.0732501
9.6,153.357,62.0771,56.8367,34.4432,1.76675,-0.0918561,0.000857137
9.7,154.589,62.5792,57.3919,34.6183,1.80024,-0.117409,0.113762
9.8,156.477,63.3238,58.4581,34.6952,1.86538,-0.316654,0.042167
9.9,158.072,64.0566,59.4313,34.5839,2.21812,-0.538968,-0.168531
10.0,159.147,64.2905,60.0463,34.81,2.43599,-0.695986,-0.179833
