Time (ns),trace,xx,yy,zz,yx,zx,zy
0.0,0.0,0.0,0.0,0.0,0.0,0.0,0.0
0.1,2.06455,0.697544,0.703295,0.663707,-0.00350509,0.00452026,-0.00630825
0.2,4.06932,1.39674,1.39218,1.2804,0.00017427,0.0165931,-0.00568753
0.3,6.03642,2.07302,2.07236,1.89104,0.00217229,0.0294877,-0.0085746
0.4,7.95397,2.7296,2.73793,2.48643,0.0115352,0.0336557,-0.0183336
0.5,9.87192,3.38367,3.39969,3.08856,0.0264423,0.032161,-0.0354651
0.6,11.7571,4.03416,4.04771,3.67519,0.0428857,0.0297456,-0.0599656
0.7,13.6354,4.68249,4.70624,4.24671,0.0480143,0.038216,-0.0762745
0.8,15.4802,5.31656,5.36024,4.80344,0.0470561,0.0424064,-0.089191
0.9,17.3135,5.94497,6.00545,5.36309,0.0350313,0.0457817,-0.11013
1.0,19.1444,6.58057,6.66068,5.90315,0.0302318,0.0523538,-0.135581
1.1,20.9787,7.21182,7.32315,6.44373,0.0221004,0.0448964,-0.163297
1.2,22.8289,7.84752,7.9991,6.98225,0.0130231,0.0318586,-0.199611
1.3,24.6762,8.47353,8.68513,7.51754,0.00453814,0.00553131,-0.236729
1.4,26.5027,9.09916,9.3652,8.03836,0.000148143,-0.0318598,-0.273351
1.5,28.2889,9.72592,10.0104,8.55261,-0.00467737,-0.0671735,-0.29438
1.6,30.0728,10.3652,10.6553,9.05232,0.00672497,-0.111378,-0.325729
1.7,31.8373,10.9959,11.3033,9.5381,0.014525,-0.158,-0.342826
1.8,33.5679,11.6214,11.9394,10.0071,0.0244108,-0.197845,-0.352901
1.9,35.2856,12.2341,12.5866,10.4649,0.0409079,-0.239491,-0.35636
2.0,36.9811,12.8297,13.2399,10.9115,0.04839,-0.284956,-0.35318
2.1,38.6658,13.4205,13.9066,11.3388,0.0518879,-0.341186,-0.343509
2.2,40.3314,14.0075,14.5605,11.7635,0.0607877,-0.396539,-0.3296
2.3,41.9769,14.6008,15.2059,12.1702,0.0694062,-0.452541,-0.318175
2.4,43.644,15.1985,15.865,12.5805,0.0836106,-0.507139,-0.304037
2.5,45.2896,15.7809,16.5129,12.9958,0.0928569,-0.544292,-0.291532
2.6,46.9472,16.3589,17.1718,13.4166,0.103928,-0.572893,-0.281228
2.7,48.6112,16.95,17.829,13.8321,0.120495,-0.595763,-0.277821
2.8,50.2779,17.5418,18.4958,14.2403,0.14126,-0.620439,-0.269246
2.9,51.9649,18.1425,19.1719,14.6505,0.157244,-0.644812,-0.268909
3.0,53.6392,18.7282,19.8539,15.0571,0.174548,-0.662069,-0.268915
3.1,55.2782,19.2963,20.534,15.4479,0.190628,-0.673431,-0.268191
3.2,56.9326,19.8756,21.2144,15.8427,0.210825,-0.675353,-0.272829
3.3,58.5738,20.4454,21.8879,16.2405,0.225713,-0.677622,-0.28563
3.4,60.1929,21.0148,22.5609,16.6172,0.246757,-0.664166,-0.296363
3.5,61.7967,21.5675,23.2318,16.9973,0.26432,-0.656678,-0.297486
3.6,63.3565,22.0832,23.9024,17.3709,0.29143,-0.662083,-0.284708
3.7,64.9212,22.6012,24.5761,17.744,0.322747,-0.664478,-0.281893
3.8,66.4898,23.1148,25.2684,18.1066,0.35936,-0.661227,-0.294599
3.9,68.0519,23.6159,25.9782,18.4578,0.410888,-0.674644,-0.301726
4.0,69.6396,24.1272,26.6917,18.8206,0.455951,-0.684377,-0.319316
4.1,71.1934,24.6394,27.4082,19.1458,0.506353,-0.6953,-0.354799
4.2,72.7252,25.1661,28.0841,19.475,0.537507,-0.709852,-0.374342
4.3,74.2247,25.696,28.7315,19.7973,0.574911,-0.729352,-0.383084
4.4,75.7133,26.227,29.375,20.1112,0.614308,-0.756592,-0.395171
4.5,77.1965,26.7893,29.989,20.4182,0.646588,-0.789035,-0.408149
4.6,78.6937,27.3464,30.6355,20.7117,0.656412,-0.808739,-0.432885
4.7,80.1786,27.9334,31.2354,21.0098,0.658484,-0.832476,-0.461664
4.8,81.6814,28.5084,31.8641,21.3089,0.680014,-0.863047,-0.497423
4.9,83.2106,29.0898,32.5074,21.6135,0.729716,-0.884036,-0.534239
5.0,84.7913,29.7064,33.1755,21.9094,0.759575,-0.905741,-0.578913
5.1,86.3294,30.2826,33.8368,22.21,0.793625,-0.91409,-0.629029
5.2,87.8768,30.8438,34.512,22.5209,0.815207,-0.915637,-0.702482
5.3,89.3409,31.3572,35.1586,22.8251,0.841888,-0.919007,-0.763992
5.4,90.8457,31.9026,35.8194,23.1236,0.861402,-0.936773,-0.824708
5.5,92.3672,32.4732,36.5045,23.3895,0.868233,-0.940618,-0.914698
5.6,94.0034,33.0642,37.238,23.7013,0.856724,-0.930027,-0.999968
5.7,95.6372,33.6727,37.995,23.9694,0.87139,-0.913222,-1.0653
5.8,97.2197,34.2705,38.7411,24.208,0.876497,-0.874859,-1.13263
5.9,98.7695,34.8834,39.4531,24.433,0.893152,-0.850508,-1.17564
6.0,100.349,35.4853,40.1617,24.7024,0.914974,-0.846831,-1.22418
6.1,101.926,36.1079,40.8491,24.9694,0.917936,-0.84685,-1.29858
6.2,103.524,36.7768,41.5003,25.2466,0.938302,-0.835575,-1.35999
6.3,105.119,37.4352,42.1738,25.5099,0.949489,-0.834167,-1.42763
6.4,106.661,38.0508,42.8572,25.7533,0.972674,-0.834452,-1.4755
6.5,108.207,38.6733,43.5562,25.9777,1.00787,-0.850332,-1.55525
6.6,109.72,39.2846,44.2477,26.188,1.06425,-0.888326,-1.63272
6.7,111.234,39.8784,44.9691,26.3861,1.11856,-0.933351,-1.71476
6.8,112.706,40.4913,45.6536,26.5614,1.17515,-0.976142,-1.77205
6.9,114.206,41.1382,46.3588,26.7088,1.22039,-1.02798,-1.83418
7.0,115.749,41.7831,47.0805,26.8852,1.30773,-1.06235,-1.88228
7.1,117.363,42.4056,47.8533,27.1046,1.40429,-1.11369,-1.93965
7.2,118.962,43.0333,48.6074,27.3211,1.49536,-1.20562,-2.0089
7.3,120.547,43.6549,49.36,27.532,1.57899,-1.25514,-2.11583
7.4,122.119,44.2881,50.0834,27.7471,1.62738,-1.29314,-2.19534
7.5,123.733,44.9449,50.8336,27.9543,1.70354,-1.31187,-2.31464
7.6,125.324,45.5706,51.6503,28.1029,1.79497,-1.33961,-2.4297
7.7,126.941,46.2094,52.4835,28.2479,1.89053,-1.36576,-2.54321
7.8,128.514,46.9195,53.2715,28.3229,1.98764,-1.40635,-2.60421
7.9,130.124,47.6855,54.073,28.365,2.07845,-1.47943,-2.68549
8.0,131.705,48.4657,54.8341,28.4056,2.17566,-1.57051,-2.75793
8.1,133.241,49.2037,55.562,28.4756,2.31413,-1.64084,-2.78911
8.2,134.793,49.9095,56.2493,28.6341,2.4289,-1.70389,-2.80768
8.3,136.489,50.6037,57.0447,28.8402,2.49828,-1.73128,-2.8715
8.4,138.131,51.2396,57.8573,29.0346,2.5193,-1.7422,-2.99966
8.5,139.703,51.9788,58.6322,29.0925,2.54456,-1.75935,-3.12455
8.6,141.265,52.6273,59.4405,29.1977,2.5795,-1.74658,-3.26931
8.7,142.86,53.1962,60.3085,29.3554,2.64481,-1.78538,-3.41498
8.8,144.247,53.6867,60.9951,29.5649,2.77438,-1.88423,-3.53961
8.9,145.648,54.1898,61.8332,29.6253,2.86725,-1.98111,-3.68119
9.0,147.145,54.736,62.6357,29.7731,2.9022,-2.02991,-3.79528
9.1,148.506,55.2625,63.4066,29.8368,2.88598,-2.0765,-3.92809
9.2,149.693,55.7788,63.9819,29.9321,2.7022,-2.16229,-4.01161
9.3,150.681,56.2383,64.3813,30.0612,2.69077,-2.34166,-4.07563
9.4,151.497,56.7563,64.5958,30.1447,2.66347,-2.48373,-4.07285
9.5,152.494,57.276,64.9527,30.2649,2.73573,-2.66003,-4.03584
9.6,153.537,57.6667,65.438,30.4327,2.75644,-2.82634,-3.90464
9.7,154.511,58.2172,65.7609,30.5328,2.95055,-2.86349,-3.48103
9.8,155.302,58.8281,66.2372,30.2371,2.81248,-2.69034,-3.21793
9.9,156.302,59.5415,66.6485,30.1125,2.65506,-2.34052,-3.13061
10.0,157.69,59.7429,67.3203,30.6266,2.99593,-1.5882,-3.48727
