Time (ns),trace,xx,yy,zz,yx,zx,zy
0.0,0.0,0.0,0.0,0.0,0.0,0.0,0.0
0.1,2.08484,0.703378,0.708898,0.672565,-0.000574218,0.00370773,-0.0026684
0.2,4.13538,1.40363,1.41263,1.31912,-0.000930498,0.0110034,0.00366064
0.3,6.14451,2.09455,2.10658,1.94338,0.00949454,0.0121165,-0.00685138
0.4,8.13635,2.7879,2.79884,2.54961,0.0207816,0.0112873,-0.01622
0.5,10.1251,3.48916,3.49418,3.14171,0.0408092,0.00732317,-0.0251848
0.6,12.1124,4.18037,4.19369,3.73833,0.0642924,0.0078788,-0.0349992
0.7,14.0833,4.86481,4.89573,4.32272,0.0830491,0.00231168,-0.0478718
0.8,16.0244,5.55624,5.58358,4.88457,0.100478,0.000910975,-0.0572704
0.9,17.9687,6.25655,6.26916,5.44297,0.115939,-0.00423225,-0.0649271
1.0,19.8987,6.96026,6.96053,5.97796,0.136275,-0.00095696,-0.0685842
1.1,21.8463,7.68111,7.65447,6.51072,0.145891,-0.00464101,-0.0738196
1.2,23.7602,8.39837,8.32517,7.03661,0.156753,-0.0113668,-0.0808631
1.3,25.6714,9.11129,9.00886,7.55129,0.163352,-0.02625,-0.094833
1.4,27.5885,9.80191,9.6928,8.09377,0.167907,-0.0563839,-0.115774
1.5,29.4776,10.4775,10.3851,8.61503,0.189638,-0.0846707,-0.13798
1.6,31.3421,11.1353,11.0911,9.11572,0.200286,-0.106698,-0.151851
1.7,33.1916,11.7903,11.7923,9.60898,0.214664,-0.122067,-0.161039
1.8,35.0649,12.4624,12.5034,10.099,0.23079,-0.142831,-0.154305
1.9,36.9494,13.1443,13.2296,10.5756,0.238365,-0.169121,-0.149101
2.0,38.7864,13.7972,13.9578,11.0314,0.234894,-0.192814,-0.151511
2.1,40.6124,14.4682,14.6817,11.4626,0.234477,-0.19651,-0.14483
2.2,42.4581,15.1503,15.4131,11.8947,0.229231,-0.211748,-0.129748
2.3,44.3055,15.8331,16.1269,12.3455,0.225572,-0.220754,-0.135039
2.4,46.1506,16.5048,16.8554,12.7903,0.220792,-0.216323,-0.147108
2.5,47.9624,17.154,17.574,13.2344,0.222161,-0.213231,-0.162745
2.6,49.744,17.8019,18.2896,13.6526,0.238509,-0.210914,-0.183535
2.7,51.4554,18.4249,18.9764,14.0541,0.264282,-0.207678,-0.19988
2.8,53.1236,19.0328,19.648,14.4429,0.282635,-0.226283,-0.196169
2.9,54.8082,19.653,20.3293,14.8259,0.299193,-0.2437,-0.196214
3.0,56.5111,20.292,21.0241,15.195,0.312443,-0.251511,-0.182707
3.1,58.2369,20.9384,21.7481,15.5505,0.322836,-0.264341,-0.184164
3.2,59.9491,21.5887,22.4635,15.8969,0.338576,-0.281428,-0.193549
3.3,61.6643,22.2591,23.1893,16.2159,0.360483,-0.299041,-0.203814
3.4,63.3738,22.9132,23.9105,16.5501,0.384988,-0.309277,-0.198698
3.5,65.0897,23.5646,24.6341,16.8911,0.408829,-0.313276,-0.199124
3.6,66.8489,24.2266,25.3648,17.2575,0.437687,-0.341003,-0.211329
3.7,68.5879,24.9073,26.0897,17.5908,0.470465,-0.369249,-0.230399
3.8,70.2937,25.5809,26.8103,17.9025,0.502804,-0.377589,-0.24253
3.9,71.9766,26.2623,27.5151,18.1992,0.522348,-0.37956,-0.242895
4.0,73.6432,26.9422,28.2241,18.477,0.558127,-0.371081,-0.232704
4.1,75.2418,27.623,28.9247,18.6941,0.602613,-0.360702,-0.194063
4.2,76.8234,28.2808,29.6425,18.9001,0.651333,-0.33122,-0.143433
4.3,78.3988,28.9261,30.3432,19.1295,0.70635,-0.288377,-0.0986381
4.4,79.9552,29.553,31.0454,19.3568,0.755259,-0.279019,-0.0594796
4.5,81.5169,30.1809,31.744,19.592,0.793855,-0.289896,-0.0265775
4.6,83.0659,30.8069,32.4388,19.8202,0.848671,-0.302466,0.020557
4.7,84.6111,31.422,33.1253,20.0638,0.877529,-0.315904,0.07856
4.8,86.215,32.0455,33.8443,20.3252,0.898552,-0.322251,0.13376
4.9,87.8666,32.6976,34.5943,20.5748,0.925034,-0.3483,0.161153
5.0,89.5594,33.3772,35.3454,20.8369,0.94866,-0.386677,0.198439
5.1,91.2353,34.0351,36.1061,21.0941,0.976377,-0.426169,0.224089
5.2,92.9286,34.6826,36.8822,21.3638,1.02014,-0.473638,0.249285
5.3,94.6246,35.348,37.6438,21.6328,1.05576,-0.526477,0.286142
5.4,96.4248,36.0337,38.4938,21.8973,1.11258,-0.557355,0.329088
5.5,98.2082,36.7191,39.3396,22.1495,1.17973,-0.596389,0.373473
5.6,99.9904,37.4006,40.208,22.3818,1.25139,-0.647512,0.415478
5.7,101.759,38.0659,41.0719,22.6213,1.31948,-0.702665,0.44883
5.8,103.53,38.7481,41.9269,22.8552,1.35297,-0.741254,0.506415
5.9,105.285,39.4358,42.7816,23.0679,1.38042,-0.769672,0.575438
6.0,107.059,40.1514,43.6395,23.2682,1.40622,-0.775196,0.644137
6.1,108.769,40.797,44.4758,23.4967,1.42605,-0.826869,0.727466
6.2,110.453,41.4148,45.3146,23.7237,1.47855,-0.880207,0.828268
6.3,112.119,41.9798,46.1759,23.9637,1.53642,-0.954141,0.937282
6.4,113.699,42.5224,47.0409,24.1353,1.58771,-1.02273,1.04613
6.5,115.343,43.0823,47.9095,24.3509,1.64457,-1.09711,1.15141
6.6,116.985,43.6524,48.8106,24.5222,1.68515,-1.16144,1.30875
6.7,118.639,44.2011,49.7098,24.7284,1.66546,-1.20713,1.45041
6.8,120.233,44.7182,50.5785,24.9359,1.63058,-1.23374,1.60918
6.9,121.793,45.2226,51.4588,25.1114,1.58429,-1.23277,1.78284
7.0,123.284,45.6765,52.3185,25.289,1.56469,-1.20454,1.91821
7.1,124.807,46.1347,53.2144,25.4581,1.53382,-1.17095,2.03359
7.2,126.249,46.5658,54.0748,25.6087,1.48916,-1.12992,2.17136
7.3,127.738,47.0475,54.9687,25.7215,1.49483,-1.11008,2.27441
7.4,129.179,47.5284,55.8462,25.804,1.48633,-1.12345,2.37108
7.5,130.666,48.0628,56.7052,25.8984,1.55096,-1.16568,2.4374
7.6,132.165,48.6203,57.5553,25.9892,1.54791,-1.20447,2.49578
7.7,133.658,49.1632,58.3596,26.135,1.59975,-1.19765,2.54525
7.8,135.196,49.7373,59.173,26.286,1.64987,-1.18251,2.50825
7.9,136.835,50.366,60.068,26.4013,1.69847,-1.18101,2.46058
8.0,138.464,51.0238,60.9272,26.5125,1.76201,-1.17461,2.45649
8.1,140.144,51.6808,61.7202,26.7434,1.85784,-1.16834,2.44631
8.2,141.813,52.3022,62.5429,26.9683,1.98121,-1.13486,2.42525
8.3,143.707,53.0382,63.4347,27.2342,2.06486,-1.11366,2.34401
8.4,145.443,53.6777,64.2916,27.4734,2.1682,-1.08103,2.18167
8.5,147.013,54.3242,65.0656,27.6231,2.29782,-1.09955,2.04313
8.6,148.509,54.8701,65.8902,27.7488,2.3557,-1.1633,1.95668
8.7,150.054,55.3376,66.7565,27.9598,2.44051,-1.2835,1.89828
8.8,151.545,55.7861,67.581,28.1784,2.416,-1.37399,1.83732
8.9,152.939,56.1118,68.4464,28.3808,2.38162,-1.46086,1.76039
9.0,154.438,56.4471,69.4085,28.5824,2.31531,-1.42496,1.7143
9.1,156.017,56.8239,70.3958,28.7971,2.24562,-1.32175,1.61835
9.2,157.395,57.1341,71.1716,29.0896,2.21145,-1.21537,1.51329
9.3,159.054,57.6228,72.1292,29.3019,2.17723,-1.08557,1.54595
9.4,160.895,58.4772,72.8793,29.5383,2.03013,-0.999173,1.60007
9.5,162.876,59.4594,73.7848,29.6316,2.04983,-0.929244,1.67776
9.6,164.766,60.2967,74.5751,29.8939,2.17669,-0.960265,1.80813
9.7,166.519,60.7651,75.6213,30.1329,2.09799,-0.979235,1.75181
9.8,167.771,60.7434,76.3923,30.6356,2.04526,-1.14974,1.64697
9.9,168.39,61.1543,76.4452,30.7903,1.72611,-0.90304,1.73334
10.0,168.978,60.8642,76.6209,31.4933,2.32226,-0.61513,1.48904
