Time (ns),trace,xx,yy,zz,yx,zx,zy
0.0,0.0,0.0,0.0,0.0,0.0,0.0,0.0
0.1,2.0822,0.70432,0.710621,0.667258,0.00450266,0.00175773,-0.00127083
0.2,4.14032,1.40234,1.41106,1.32692,0.0042411,0.0023927,0.00545157
0.3,6.18148,2.09477,2.11729,1.96942,0.003621,0.00292651,0.0146893
0.4,8.17639,2.76098,2.81968,2.59573,-0.00114382,0.0143406,0.0329685
0.5,10.1618,3.41673,3.51862,3.22642,0.00158591,0.0247309,0.0504505
0.6,12.1283,4.06168,4.21479,3.85189,-0.000827956,0.0254153,0.0751136
0.7,14.0646,4.70386,4.90342,4.45733,-0.00918501,0.0216522,0.0947181
0.8,15.9663,5.33353,5.58515,5.04764,-0.0109634,0.0117927,0.101065
0.9,17.834,5.95508,6.26474,5.61415,-0.0177687,0.0259498,0.105425
1.0,19.7028,6.59685,6.94214,6.16377,-0.0219932,0.0339448,0.108289
1.1,21.5602,7.23693,7.62049,6.7028,-0.0297357,0.0336439,0.118194
1.2,23.416,7.87899,8.30563,7.23137,-0.0503696,0.0295647,0.126948
1.3,25.238,8.52673,8.97919,7.73213,-0.0738221,0.0276579,0.135757
1.4,27.0519,9.16596,9.64826,8.23771,-0.101063,0.0414188,0.146387
1.5,28.8798,9.81492,10.3073,8.75756,-0.136043,0.0505893,0.155327
1.6,30.6786,10.4602,10.9762,9.24223,-0.168017,0.0692803,0.154002
1.7,32.476,11.1079,11.647,9.72109,-0.200622,0.0853756,0.148093
1.8,34.2706,11.7485,12.3153,10.2068,-0.221476,0.102797,0.150439
1.9,36.0628,12.3882,12.9863,10.6883,-0.231824,0.121533,0.155628
2.0,37.882,13.0389,13.6621,11.1809,-0.231638,0.129512,0.162759
2.1,39.6609,13.6677,14.3364,11.6568,-0.227767,0.136866,0.169174
2.2,41.4061,14.2915,14.9933,12.1213,-0.2236,0.137031,0.158819
2.3,43.1154,14.8943,15.6507,12.5704,-0.208172,0.139198,0.157079
2.4,44.8342,15.5113,16.32,13.0029,-0.194565,0.140918,0.148674
2.5,46.5697,16.1523,17.0006,13.4167,-0.185368,0.149606,0.155395
2.6,48.2882,16.787,17.6749,13.8263,-0.187476,0.166416,0.171501
2.7,49.9974,17.4066,18.3673,14.2235,-0.186705,0.185316,0.17998
2.8,51.7036,18.0234,19.0516,14.6286,-0.187766,0.196022,0.192439
2.9,53.4201,18.6503,19.7542,15.0156,-0.194555,0.217604,0.211158
3.0,55.1537,19.2826,20.4598,15.4113,-0.206984,0.243313,0.23916
3.1,56.8437,19.8823,21.1601,15.8013,-0.205817,0.283471,0.25356
3.2,58.5129,20.4586,21.8776,16.1767,-0.212245,0.321006,0.303238
3.3,60.1348,21.0112,22.583,16.5406,-0.209201,0.351416,0.352275
3.4,61.7205,21.5639,23.2784,16.8782,-0.216487,0.377027,0.417263
3.5,63.3186,22.1325,23.962,17.2242,-0.23978,0.420834,0.482433
3.6,64.9015,22.6935,24.6536,17.5544,-0.272062,0.463278,0.553095
3.7,66.5125,23.2714,25.3649,17.8762,-0.29124,0.504133,0.632037
3.8,68.0688,23.839,26.0449,18.1849,-0.298247,0.535902,0.71078
3.9,69.6516,24.4041,26.7378,18.5097,-0.319667,0.559166,0.797385
4.0,71.2022,24.972,27.4247,18.8054,-0.358888,0.579841,0.886358
4.1,72.7668,25.5394,28.1267,19.1008,-0.386697,0.593275,0.964794
4.2,74.3523,26.1192,28.8507,19.3824,-0.426795,0.590808,1.03721
4.3,75.9365,26.6904,29.586,19.6601,-0.476725,0.589657,1.10635
4.4,77.5551,27.2734,30.3447,19.937,-0.511005,0.609643,1.17153
4.5,79.1593,27.8462,31.1207,20.1924,-0.560944,0.631057,1.2305
4.6,80.7939,28.4331,31.8983,20.4624,-0.612649,0.642184,1.26209
4.7,82.399,29.0159,32.6851,20.698,-0.671472,0.663105,1.28979
4.8,84.0199,29.613,33.4784,20.9285,-0.719031,0.688667,1.32976
4.9,85.6434,30.2035,34.2708,21.1692,-0.788501,0.721236,1.3549
5.0,87.2739,30.7934,35.0809,21.3996,-0.855726,0.749097,1.37645
5.1,88.8788,31.3548,35.8983,21.6257,-0.910284,0.789423,1.4039
5.2,90.5025,31.9387,36.706,21.8578,-0.979452,0.834436,1.42707
5.3,92.1192,32.5303,37.5258,22.0631,-1.04861,0.876735,1.43966
5.4,93.7471,33.1332,38.3368,22.2771,-1.12202,0.903858,1.45695
5.5,95.3811,33.7333,39.1398,22.508,-1.19237,0.904021,1.47229
5.6,97.0547,34.3368,39.9635,22.7544,-1.27318,0.912638,1.4774
5.7,98.6725,34.9005,40.7822,22.9897,-1.35615,0.945287,1.49162
5.8,100.295,35.467,41.608,23.2195,-1.42254,0.994837,1.50939
5.9,101.941,36.0356,42.4386,23.4664,-1.47705,1.03053,1.53891
6.0,103.619,36.6393,43.2646,23.7155,-1.52017,1.07062,1.58451
6.1,105.257,37.2259,44.0928,23.9379,-1.59261,1.091,1.65871
6.2,106.943,37.8538,44.9303,24.1588,-1.64164,1.12814,1.74472
6.3,108.652,38.5054,45.7878,24.3588,-1.67164,1.16141,1.83849
6.4,110.263,39.0842,46.6265,24.5526,-1.68552,1.17388,1.93429
6.5,111.84,39.6437,47.5031,24.6933,-1.70393,1.19285,2.01824
6.6,113.477,40.189,48.417,24.871,-1.74649,1.20385,2.11643
6.7,115.1,40.7423,49.3008,25.0564,-1.80771,1.15706,2.18827
6.8,116.745,41.3345,50.1941,25.2161,-1.86703,1.11026,2.30886
6.9,118.345,41.9014,51.0557,25.3882,-1.94996,1.05061,2.39996
7.0,119.883,42.5124,51.8503,25.5205,-2.02628,1.00799,2.49759
7.1,121.456,43.1452,52.6479,25.6632,-2.09703,0.957163,2.57841
7.2,123.003,43.7679,53.4418,25.7936,-2.13891,0.900223,2.68582
7.3,124.514,44.4115,54.1738,25.9284,-2.17933,0.808116,2.77497
7.4,126.008,45.0701,54.9078,26.0303,-2.20997,0.686844,2.86968
7.5,127.394,45.7044,55.6059,26.0838,-2.27254,0.58816,2.9791
7.6,128.764,46.3449,56.3067,26.1122,-2.27502,0.515184,3.07236
7.7,130.131,47.0013,56.9875,26.1417,-2.23841,0.430517,3.16539
7.8,131.501,47.6063,57.7163,26.1782,-2.18231,0.364768,3.27728
7.9,132.927,48.2531,58.4401,26.2343,-2.10603,0.344591,3.39505
8.0,134.278,48.8747,59.068,26.3356,-1.98632,0.341299,3.50717
8.1,135.67,49.5237,59.6881,26.4585,-1.89511,0.332029,3.65201
8.2,136.891,50.0729,60.1968,26.6209,-1.78394,0.31406,3.72733
8.3,138.159,50.6901,60.7032,26.7656,-1.64566,0.24778,3.78967
8.4,139.412,51.3239,61.2109,26.8777,-1.50955,0.154658,3.86706
8.5,140.715,52.017,61.7298,26.9687,-1.44576,0.0434472,3.94755
8.6,142.026,52.6974,62.2259,27.1032,-1.42918,-0.107522,4.01412
8.7,143.435,53.4423,62.782,27.2103,-1.57141,-0.300934,4.04006
8.8,144.696,54.1986,63.365,27.132,-1.69572,-0.395692,3.97493
8.9,145.966,54.9338,63.991,27.0415,-1.90087,-0.525631,3.8336
9.0,147.097,55.5137,64.5693,27.0139,-2.02389,-0.729343,3.6849
9.1,148.098,56.0101,65.0852,27.0025,-2.17588,-0.972064,3.49964
9.2,149.143,56.5488,65.4962,27.0985,-2.34229,-1.19826,3.40223
9.3,150.344,57.1198,65.9478,27.2765,-2.54679,-1.41985,3.2477
9.4,151.448,57.671,66.4176,27.3595,-2.6983,-1.5901,3.14631
9.5,153.02,58.3291,67.2354,27.4555,-2.69403,-1.70936,2.94792
9.6,154.705,59.0573,68.1101,27.5379,-2.69988,-1.88739,2.83288
9.7,156.658,60.0108,68.8481,27.7994,-2.6179,-1.85909,2.87006
9.8,158.902,61.1246,69.8494,27.9284,-2.33002,-1.88505,2.92232
9.9,160.503,61.9095,70.3073,28.286,-2.04873,-2.32478,2.59646
10.0,162.517,62.8274,71.4079,28.2814,-1.7206,-2.2534,2.90362
