Time (ns),trace,xx,yy,zz,yx,zx,zy
0.0,0.0,0.0,0.0,0.0,0.0,0.0,0.0
0.1,2.03036,0.682882,0.687883,0.659592,0.00348133,-0.00104812,-0.0115688
0.2,3.98357,1.35869,1.34296,1.28192,0.0108921,-0.00419882,-0.0284531
0.3,5.90833,2.02482,2.00736,1.87615,0.0221628,-0.0014631,-0.0576567
0.4,7.81193,2.69502,2.66676,2.45014,0.0313404,-8.8347e-05,-0.0847822
0.5,9.71538,3.37133,3.34855,2.99549,0.0275866,-0.00515322,-0.112753
0.6,11.5984,4.0518,4.02237,3.52424,0.0132759,-0.00721223,-0.13363
0.7,13.4756,4.72725,4.70261,4.04575,0.00679615,-0.00871281,-0.154736
0.8,15.3284,5.40127,5.36323,4.56388,-0.00528748,-0.0154955,-0.176326
0.9,17.1441,6.06453,6.01674,5.06283,-0.014257,-0.0119915,-0.194202
1.0,18.9375,6.71982,6.66683,5.55083,-0.0329458,-0.00314088,-0.210356
1.1,20.7253,7.37062,7.32617,6.02854,-0.0548954,0.00338448,-0.23181
1.2,22.5271,8.03747,7.99584,6.4938,-0.0781482,-0.000964424,-0.256078
1.3,24.3182,8.69126,8.66356,6.96337,-0.102132,-0.00102565,-0.283997
1.4,26.1014,9.35289,9.30752,7.44101,-0.131221,-0.0121228,-0.303901
1.5,27.8592,10.0074,9.94423,7.90754,-0.159591,-0.0324655,-0.324594
1.6,29.6182,10.6634,10.5748,8.37994,-0.195136,-0.0531849,-0.344689
1.7,31.3925,11.329,11.2093,8.8542,-0.227631,-0.0657606,-0.359496
1.8,33.1744,12.0057,11.842,9.32664,-0.262675,-0.0815947,-0.379579
1.9,34.921,12.6882,12.4584,9.7744,-0.289155,-0.103387,-0.406371
2.0,36.6826,13.3682,13.0912,10.2232,-0.321414,-0.122448,-0.432347
2.1,38.4326,14.0392,13.7384,10.655,-0.34188,-0.144216,-0.460896
2.2,40.1396,14.6988,14.3812,11.0597,-0.362563,-0.178569,-0.48188
2.3,41.8616,15.3606,15.0368,11.4642,-0.382174,-0.219856,-0.49143
2.4,43.598,16.0281,15.7014,11.8685,-0.397835,-0.254696,-0.502398
2.5,45.3114,16.7068,16.359,12.2456,-0.414575,-0.285458,-0.527458
2.6,47.0423,17.3977,17.0239,12.6207,-0.433562,-0.311885,-0.546965
2.7,48.7797,18.094,17.6969,12.9887,-0.441781,-0.338105,-0.564593
2.8,50.5293,18.7782,18.3896,13.3614,-0.440304,-0.361527,-0.58519
2.9,52.2683,19.4715,19.0609,13.7359,-0.44696,-0.383362,-0.606996
3.0,54.0041,20.1768,19.7153,14.1121,-0.462482,-0.401412,-0.628028
3.1,55.7281,20.8846,20.3604,14.4832,-0.468052,-0.395385,-0.64671
3.2,57.4462,21.6068,21.0173,14.822,-0.46462,-0.380977,-0.660346
3.3,59.1493,22.3281,21.6565,15.1646,-0.464771,-0.361989,-0.669597
3.4,60.8547,23.0542,22.3143,15.4862,-0.46015,-0.334252,-0.676673
3.5,62.51,23.7623,22.9599,15.7878,-0.462394,-0.30342,-0.68915
3.6,64.1688,24.4561,23.6119,16.1007,-0.474113,-0.272715,-0.687824
3.7,65.8053,25.1324,24.2618,16.4111,-0.482987,-0.241868,-0.687
3.8,67.4297,25.8023,24.931,16.6964,-0.491263,-0.226419,-0.682046
3.9,69.0099,26.4474,25.589,16.9735,-0.492213,-0.194153,-0.683821
4.0,70.6159,27.1189,26.2539,17.2431,-0.519243,-0.170692,-0.683037
4.1,72.2411,27.8095,26.9154,17.5162,-0.533672,-0.137293,-0.690367
4.2,73.8574,28.495,27.5604,17.802,-0.548715,-0.0919815,-0.718183
4.3,75.4852,29.1833,28.2061,18.0958,-0.548682,-0.0577248,-0.739323
4.4,77.0973,29.8763,28.8192,18.4018,-0.530981,-0.00760789,-0.74311
4.5,78.6805,30.5421,29.4464,18.692,-0.509993,0.0465858,-0.755129
4.6,80.2398,31.1983,30.0684,18.973,-0.479753,0.0950473,-0.773555
4.7,81.7861,31.8856,30.6572,19.2433,-0.456972,0.146224,-0.798627
4.8,83.2384,32.559,31.2124,19.4671,-0.436853,0.206322,-0.819797
4.9,84.6809,33.2226,31.7598,19.6985,-0.430527,0.253276,-0.838001
5.0,86.1238,33.8922,32.3088,19.9229,-0.427302,0.31125,-0.862699
5.1,87.5893,34.5479,32.873,20.1684,-0.426882,0.338018,-0.875126
5.2,89.0748,35.1914,33.4274,20.4559,-0.431154,0.349082,-0.857591
5.3,90.554,35.8399,33.9906,20.7236,-0.425396,0.355491,-0.843769
5.4,91.9411,36.4525,34.5386,20.9499,-0.405637,0.376307,-0.856015
5.5,93.3629,37.0709,35.1129,21.1791,-0.400846,0.39636,-0.87449
5.6,94.7738,37.6708,35.692,21.4111,-0.385555,0.413308,-0.888106
5.7,96.1889,38.2681,36.2921,21.6288,-0.366167,0.431928,-0.89036
5.8,97.6068,38.8847,36.8814,21.8408,-0.359989,0.457536,-0.908015
5.9,99.0354,39.49,37.4951,22.0503,-0.345979,0.47876,-0.949362
6.0,100.517,40.1322,38.1315,22.2531,-0.333722,0.514739,-0.981019
6.1,101.934,40.7464,38.7759,22.4113,-0.293996,0.54089,-1.01297
6.2,103.285,41.3378,39.4018,22.5452,-0.232111,0.567422,-1.00795
6.3,104.605,41.9125,40.0022,22.6899,-0.144886,0.588975,-0.990833
6.4,105.951,42.5122,40.6149,22.8239,-0.0891817,0.616577,-0.995999
6.5,107.259,43.1007,41.1973,22.9608,-0.0485202,0.659109,-1.02139
6.6,108.478,43.6555,41.7507,23.0716,-0.0305804,0.715473,-1.03371
6.7,109.665,44.187,42.3156,23.1627,-0.038428,0.782156,-1.05909
6.8,110.904,44.7771,42.8651,23.2617,-0.024275,0.851052,-1.0771
6.9,112.18,45.4025,43.4105,23.3665,-0.00387822,0.935801,-1.08967
7.0,113.39,46.0026,43.9302,23.457,-0.00996251,1.03162,-1.10352
7.1,114.595,46.5951,44.4157,23.5845,-0.0555402,1.14945,-1.09968
7.2,115.818,47.2255,44.8964,23.6963,-0.0845656,1.29099,-1.11407
7.3,117.121,47.9089,45.401,23.811,-0.126833,1.43507,-1.13656
7.4,118.375,48.5688,45.8532,23.9535,-0.168599,1.55932,-1.13348
7.5,119.605,49.1776,46.2984,24.1287,-0.23812,1.65755,-1.08748
7.6,120.823,49.7741,46.7573,24.2921,-0.318386,1.76373,-1.05655
7.7,122.215,50.4425,47.2709,24.5019,-0.404331,1.89236,-1.0283
7.8,123.584,51.1532,47.7099,24.7212,-0.432938,2.00629,-0.969033
7.9,125.022,51.9325,48.1759,24.9139,-0.401338,2.11185,-0.906684
8.0,126.554,52.7065,48.7344,25.1132,-0.309224,2.22036,-0.848072
8.1,128.078,53.5021,49.2539,25.3216,-0.26358,2.38014,-0.817952
8.2,129.528,54.2677,49.7727,25.4874,-0.249315,2.50549,-0.755106
8.3,130.987,54.9882,50.2904,25.7085,-0.262884,2.62451,-0.671748
8.4,132.445,55.688,50.8064,25.9509,-0.259022,2.72164,-0.515282
8.5,133.865,56.4433,51.3517,26.0698,-0.236196,2.79735,-0.266248
8.6,135.238,57.2313,51.8183,26.1882,-0.223952,2.92022,-0.000189193
8.7,136.479,57.9397,52.2957,26.2439,-0.265256,3.01977,0.240456
8.8,137.669,58.5473,52.8013,26.3199,-0.335149,3.18129,0.482956
8.9,138.821,59.1314,53.2308,26.4589,-0.378323,3.25823,0.756765
9.0,139.936,59.7,53.7202,26.5159,-0.461421,3.31274,1.02325
9.1,140.882,60.2753,54.1484,26.4586,-0.480552,3.37358,1.23661
9.2,141.906,60.887,54.5629,26.456,-0.453872,3.37032,1.39466
9.3,143.125,61.6507,55.1511,26.3233,-0.504744,3.29642,1.54334
9.4,144.439,62.2655,55.8909,26.2822,-0.511909,3.20777,1.63183
9.5,145.712,62.6088,56.5504,26.5523,-0.548281,3.08181,1.72738
9.6,147.028,63.0091,57.1282,26.8905,-0.793356,3.13795,1.85245
9.7,148.17,63.3,57.8221,27.0477,-1.01438,3.07841,1.86647
9.8,148.734,63.6555,58.2211,26.8577,-1.06326,3.04684,1.85218
9.9,150.177,64.4397,59.0103,26.7268,-1.14806,2.82108,1.85701
10.0,152.317,65.5816,59.7619,26.9739,-1.41191,2.57904,1.74811
